"Id","SalePrice"
1,211083.982555729
2,181465.853279693
3,221146.894289901
4,140153.905961539
5,251702.62164033
6,143018.469088295
7,303551.444879723
8,200039.654865297
9,129850.760259824
10,117930.85847539
11,129015.888934002
12,345188.97310449
13,144015.039466077
14,271199.27378445
15,156817.674145735
16,132041.405015244
17,149199.537368358
18,90002.2717267361
19,158842.029843815
20,138846.123657321
21,326718.105549131
22,139431.983767981
23,230068.498136809
24,129809.837109426
25,154049.409017963
26,256134.131020907
27,135002.988839741
28,302984.396068252
29,207239.954013077
30,68518.5454360161
31,40014.9907325779
32,149051.143542337
33,180936.138556592
34,165529.017108317
35,282197.768530756
36,311836.934279019
37,144830.987807311
38,153032.949479911
39,110122.83332885
40,81992.8320480586
41,159152.732638707
42,170055.062686058
43,143950.135170054
44,130098.688668718
45,140999.204740767
46,312780.220174556
47,239715.663590798
48,249732.716667334
49,113018.157840166
50,127195.16162523
51,176968.180833456
52,114586.736966889
53,110010.326760083
54,385031.425735607
55,130010.746794374
56,180344.195657678
57,173149.94849044
58,192892.497354757
59,438991.893900632
60,124458.400285459
61,158157.648425403
62,100999.787143938
63,201478.445415476
64,139962.04156015
65,220586.906024478
66,312857.631146314
67,180141.393101284
68,223887.681263142
69,79845.6758882426
70,225044.844932032
71,244377.625603278
72,129456.580530508
73,185229.296793683
74,144731.74706852
75,107392.684995301
76,90954.9113635089
77,132835.533935495
78,127032.861558878
79,136421.047109745
80,110174.921410468
81,193756.292240618
82,153467.535326288
83,245558.317293901
84,126446.359884828
85,168637.535623779
86,259902.621796538
87,174807.510608806
88,165263.703583154
89,84969.6140542358
90,123592.032529011
91,109873.428464317
92,99062.6157720783
93,163226.973275245
94,133861.536838179
95,205810.038798001
96,184764.12965672
97,216797.178303413
98,94805.6497413389
99,82974.4386210482
100,129030.688517477
101,205122.421575546
102,177770.494956807
103,118917.587014741
104,196475.336222288
105,169494.092883267
106,248679.559791038
107,99988.3301328125
108,114911.802049243
109,114987.350170321
110,190373.153664978
111,136956.93912392
112,179258.092765343
113,383543.746652568
114,216137.250799094
115,259673.845731384
116,175807.49278432
117,138890.050030715
118,154934.627017685
119,320674.42510799
120,165725.245491652
121,180033.604515754
122,100073.613541378
123,136193.215322181
124,153785.542627438
125,180559.122239361
126,84488.6538118572
127,127997.959947893
128,86991.7144222721
129,154994.650482718
130,150008.285442673
131,224417.844038301
132,242210.521642751
133,150337.647744635
134,219652.084252762
135,179928.514343368
136,173864.467145926
137,143177.644925024
138,171012.227452274
139,231042.260738823
140,229217.072856863
141,115020.821549754
142,252000.315973097
143,165860.049647097
144,206136.816778923
145,124977.181910487
146,130216.163033071
147,104735.285967474
148,222306.831281389
149,141039.490896804
150,115038.696982908
151,122344.320800602
152,375242.859758138
153,189941.618628557
154,234905.910128594
155,124704.205802194
156,78942.4042949503
157,109459.945069121
158,267697.623653105
159,254837.824484954
160,319743.805304603
161,162825.489619292
162,411164.223877364
163,220032.08061074
164,103147.027695235
165,152105.701225634
166,127485.702038147
167,190140.371159817
168,328227.615316961
169,184870.871580771
170,227756.095853598
171,128493.456939972
172,214949.731536121
173,238903.739016614
174,163019.498420111
175,184041.931133576
176,242569.668095034
177,211281.68661745
178,172567.234245988
179,502341.385645045
180,100081.602189024
181,176262.523097421
182,199993.044085446
183,120001.833895975
184,199994.087990625
185,126992.705936013
186,475061.4832786
187,172955.990540771
188,134972.235169356
189,153237.863202333
190,286019.197409707
191,314983.252419272
192,183916.569347956
193,195784.934453746
194,131866.751199641
195,125881.322497359
196,148518.151044061
197,312549.278740689
198,234962.901296078
199,104010.963344093
200,276214.312252664
201,140147.685399568
202,171506.328553233
203,111976.438247901
204,148922.436628059
205,109933.904124321
206,180629.489770521
207,143830.246265846
208,141051.809777163
209,276737.654446199
210,144964.120305362
211,97961.6893369294
212,184753.574083693
213,251975.911932242
214,155778.923185986
215,161655.509425625
216,134429.690081203
217,209119.400397603
218,107032.976785761
219,309780.241293347
220,167448.238796179
221,205050.877464929
222,199992.746479352
223,179734.27567023
224,97493.5896618183
225,388573.306125065
226,110565.34632451
227,286134.418221516
228,105954.268945073
229,124951.007642839
230,192881.274161376
231,147851.113127616
232,403642.017171128
233,94568.3001362511
234,128245.263547424
235,217844.273841372
236,88827.2369901937
237,186089.55702122
238,194484.956575972
239,315960.454468771
240,113016.732899422
241,264510.270346118
242,110180.122122353
243,79270.2869217235
244,119848.967750304
245,205485.358068036
246,241444.380374003
247,137012.94765125
248,139950.179849217
249,184482.028921591
250,277082.463990089
251,76474.8306067567
252,235005.875691183
253,174389.103017976
254,157992.847489393
255,144718.047741534
256,229083.557291387
257,207730.464979368
258,221820.01845238
259,231342.63643168
260,97001.0379595028
261,176116.630284432
262,277054.999603713
263,151047.802901795
264,129924.569389078
265,72984.3505478651
266,175629.026214928
267,184541.932075931
268,179466.512306317
269,120469.186089781
270,147951.372054984
271,266138.743648887
272,241428.199243559
273,293077.537339419
274,139152.524650602
275,124525.254596302
276,204722.726050094
277,201127.140361808
278,140805.714163215
279,414489.123762163
280,191874.255952713
281,228523.678145535
282,185760.222676324
283,207508.55173745
284,244863.997970013
285,179077.626106999
286,164669.94755921
287,159591.467437152
288,88230.0923099761
289,121669.173093657
290,153698.781198708
291,233170.078467037
292,135853.226512588
293,130830.755837042
294,235033.008591696
295,167082.341725387
296,142719.224280856
297,151563.40311103
298,238935.182546597
299,175012.898187034
300,158404.365249942
301,157043.500425796
302,267022.837807141
303,208152.88488927
304,149394.629222047
305,295150.725867235
306,306241.46204983
307,224957.36860933
308,89507.2584777464
309,83237.3018313764
310,360677.574439124
311,166289.892950286
312,131313.317752734
313,119878.937639915
314,375002.537746692
315,177931.576396124
316,186250.855179539
317,260491.312108953
318,267219.004062782
319,260448.72466092
320,187575.445138554
321,343438.612324128
322,354564.460620133
323,301031.94239789
324,126346.5797676
325,242024.177137308
326,86998.1049081985
327,323979.710434912
328,145403.929298304
329,214411.289025518
330,77961.3438449175
331,119129.019368555
332,138835.741193274
333,284091.238388341
334,206904.661446993
335,192282.520744486
336,228633.754798397
337,378083.078771715
338,214029.848613145
339,202430.481033595
340,154725.430308311
341,202627.778658873
342,81995.2818208643
343,87495.981572519
344,266702.324387469
345,85002.9883460785
346,140193.326192894
347,151508.969362761
348,158838.781667055
349,154756.247275777
350,437353.710677421
351,319165.252534118
352,190084.816189939
353,94985.4395473896
354,105807.462267878
355,139918.339070616
356,177480.686174587
357,173075.336312476
358,133996.072711323
359,129981.480740402
360,280354.259767074
361,156009.497059398
362,144981.898181077
363,198526.673715356
364,117922.57016899
365,189958.115110911
366,146855.086380051
367,159257.864881773
368,164924.488201483
369,132121.817025355
370,161992.121240965
371,174000.077641678
372,134442.641495567
373,124814.854492114
374,123018.838567885
375,216218.5980713
376,61018.36126097
377,147943.799978572
378,337760.285728482
379,393943.327652536
380,178656.8117888
381,127140.744426858
382,187841.030074387
383,208282.563639032
384,76028.0141103786
385,240077.171927056
386,191320.992261233
387,80999.2275175493
388,125140.350590547
389,191513.993696359
390,424883.834697573
391,119058.387540123
392,214805.04736978
393,106489.90224037
394,99988.1337505306
395,108925.394843919
396,128642.595869922
397,123140.094191748
398,169308.947843605
399,66992.6068315483
400,239751.886534225
401,245493.171323187
402,167981.865716473
403,107533.597050129
404,257705.972677697
405,168024.975028835
406,150063.3386734
407,114989.597099299
408,177071.62560567
409,278996.079264838
410,337171.340550232
411,60002.7267850214
412,145013.003156683
413,221929.113512915
414,114894.392513
415,227994.143929133
416,181032.037768015
417,149375.511091615
418,239032.763480918
419,125987.069414754
420,141918.444996425
421,206200.758501825
422,214866.665691898
423,112975.467125033
424,316250.493104537
425,139013.257646492
426,135131.196382827
427,275114.836163847
428,110456.732667341
429,193675.100760395
430,175044.319355461
431,86482.1326293766
432,79946.6015765488
433,122558.554519456
434,181169.109826682
435,81035.6337397025
436,212005.706073291
437,115998.582639424
438,119062.97504704
439,90358.4567450864
440,109984.683450147
441,554692.582040776
442,117910.432975037
443,162729.98521228
444,172448.398092465
445,209296.829670385
446,127870.068859506
447,189974.073319141
448,199908.114676371
449,119869.819744834
450,119565.581463818
451,109717.848716392
452,279855.038788626
453,204194.94978974
454,210635.932343618
455,187714.267668056
456,175042.106523809
457,97896.4056194342
458,255954.377991467
459,160984.165514289
460,110025.153728992
461,263317.545730186
462,155044.177541852
463,62557.3860432712
464,188839.907063684
465,124035.998427054
466,177303.09858052
467,166909.947232343
468,146527.134307823
469,250368.301677795
470,187024.385169833
471,211843.52495919
472,190002.356972847
473,148135.303880566
474,435408.818442848
475,251576.029024098
476,132468.395991637
477,209026.173511796
478,378172.88661519
479,299285.89454681
480,89473.2146116838
481,326065.323300908
482,373765.477123764
483,154996.380712203
484,163914.362389876
485,132066.298250121
486,147455.976698363
487,155755.972859939
488,175159.140336197
489,159959.133158188
490,85956.0160659329
491,114940.083923012
492,132957.19222901
493,172617.942863719
494,155051.787374734
495,91382.2149590655
496,34980.5272926111
497,429573.920064013
498,184066.792464725
499,130235.498808318
500,120022.316617679
501,112133.948265552
502,225916.144065307
503,140003.927939153
504,288786.220025787
505,146980.529463543
506,124401.180984755
507,215667.885798487
508,208482.615033178
509,161049.036069902
510,126253.437573252
511,164929.402337551
512,200417.590395003
513,129653.022633111
514,133894.456819224
515,96492.7862680602
516,402752.049460573
517,158108.336759703
518,265618.095890429
519,211609.418032608
520,234119.962267366
521,106232.885191033
522,149893.859255556
523,159039.749304689
524,185060.17103822
525,311519.779848798
526,176109.592937136
527,131702.058228864
528,442709.944679246
529,85947.8799593593
530,199837.83296909
531,174922.887511201
532,127943.144738674
533,107470.689668549
534,39303.8421801384
535,177987.376767366
536,107648.699748514
537,188947.747329915
538,111246.555335288
539,157715.696236924
540,272063.127235041
541,315940.115896084
542,248086.587041079
543,213246.843353891
544,133066.693733116
545,180307.006018072
546,228969.657962539
547,209852.228565591
548,129552.835021132
549,125011.871913673
550,263822.081746078
551,139877.455896076
552,112605.406570465
553,255722.566781665
554,108018.750159779
555,283981.002150247
556,113013.238725577
557,141018.62948948
558,107953.210809982
559,175189.089222675
560,231152.963240582
561,121792.762420756
562,169883.281151497
563,108018.484754248
564,184655.576225023
565,265269.143188544
566,127953.563852725
567,324130.180972267
568,214700.18028457
569,316606.061703835
570,135887.773359653
571,142639.396686269
572,119957.672653141
573,224298.757928506
574,170510.403710133
575,138996.519377527
576,118271.907386403
577,144933.212888214
578,164405.89159952
579,146046.639288849
580,131479.008931484
581,181483.524809115
582,255592.337831397
583,118476.639471492
584,325028.643925946
585,132980.287600973
586,369324.747729552
587,129979.032701487
588,136930.438647335
589,143037.526579788
590,79473.2440505071
591,188453.747252111
592,451821.681753764
593,138152.039952757
594,138220.849264004
595,111148.222374042
596,319041.024517435
597,114643.548715861
598,193882.328184318
599,217374.35270679
600,151018.296362886
601,276278.064735971
602,140804.512379104
603,218755.532150555
604,151749.331218019
605,221085.201336051
606,204510.277067779
607,152024.721222226
608,224468.722784902
609,359206.473781253
610,118520.757652044
611,312814.755282769
612,148055.124106371
613,261638.484425719
614,146887.428335977
615,75524.2548809678
616,137499.418167514
617,184828.477405912
618,105560.920299536
619,314700.235968545
620,305341.907685282
621,67047.7192588893
622,240440.710380531
623,134970.949411987
624,169091.863957586
625,165214.556451884
626,159673.973283949
627,139829.094074386
628,153014.437532474
629,134994.219618488
630,168484.883098068
631,123978.832707851
632,209840.671507559
633,83057.7180253432
634,139480.27277629
635,143964.752924068
636,200078.035866568
637,60010.6602297305
638,92969.7639496572
639,84989.9773336147
640,265089.903233104
641,275293.028582028
642,227468.050919059
643,345122.125851001
644,151991.392412906
645,370326.593676911
646,143125.245486853
647,98315.0958855075
648,155035.154994819
649,155111.001242983
650,84473.3104913959
651,205725.552517658
652,107989.614510308
653,190147.152853965
654,134552.15364699
655,350266.730589726
656,88013.7505993983
657,144911.782522007
658,149015.495976723
659,97700.0439879018
660,166648.258067825
661,198082.61846536
662,402096.164242278
663,109993.124198606
664,137531.468713143
665,422930.138808603
666,230559.968304683
667,128990.592961723
668,193545.376390069
669,168090.770498276
670,137210.815781349
671,173077.756540955
672,103550.87100812
673,165379.855263161
674,257656.762059579
675,140395.918079645
676,148547.999992241
677,86979.161393591
678,109305.181295441
679,371879.654847533
680,128472.385709137
681,142727.172088825
682,159366.52406656
683,173061.337430418
684,283094.940517591
685,220984.645085831
686,207332.948871194
687,229611.780649184
688,148845.051818693
689,390773.987602162
690,193497.838341667
691,142902.355083381
692,755338.402343833
693,334865.634335031
694,108433.864872055
695,141327.61400475
696,175822.082897975
697,89048.5995085684
698,123491.846569981
699,138426.486876929
700,195963.276075915
701,311130.732595333
702,140327.734431934
703,362966.559273502
704,139981.5004034
705,213092.635715793
706,54999.258931021
707,302026.85501535
708,250924.95138223
709,179754.578106382
710,110131.419689362
711,52011.3972573811
712,102734.800121625
713,189245.661368829
714,128991.050659668
715,130674.075882221
716,164206.818950576
717,159619.502897538
718,157102.454776838
719,341040.891933085
720,128458.527977724
721,274729.306834953
722,142199.873420864
723,124584.827893551
724,135292.2134161
725,319453.608141075
726,120469.25204287
727,221451.847786166
728,199854.006066737
729,110596.706013532
730,102885.629611566
731,237299.560366694
732,187963.391117314
733,222928.178759712
734,131553.44216482
735,107987.710997592
736,163017.993736385
737,93483.3395364971
738,239071.184595119
739,178957.559669974
740,192251.132141239
741,131996.405003375
742,141815.973942455
743,177679.3265
744,174832.972106527
745,180011.355561862
746,299951.798724859
747,235273.58047539
748,266037.563897595
749,260163.042015876
750,97990.9304069858
751,96388.3917164071
752,162143.581632787
753,215588.021999304
754,276368.310254313
755,156143.873976427
756,172737.043279533
757,212448.525049343
758,159110.018576882
759,178855.649899236
760,289887.651096966
761,127511.136949363
762,99981.9143317727
763,215197.964752693
764,335926.532170091
765,269996.216150204
766,262277.085180942
767,196694.558427429
768,159997.12560013
769,215859.061455622
770,537836.509112266
771,134968.912320623
772,102034.756482876
773,107149.631573688
774,114804.340481829
775,391428.744535778
776,162215.832454123
777,222638.903750536
778,142531.158637292
779,143962.073054122
780,134994.952374347
781,176076.35759872
782,176030.196460538
783,188152.580440905
784,165347.962716802
785,128028.164049842
786,161583.366724849
787,139013.028299352
788,232487.71398193
789,107612.939511961
790,187634.430417985
791,162240.292041178
792,146798.345759119
793,269686.916416728
794,224731.107476816
795,194315.117682446
796,171524.896807191
797,143563.431117198
798,108740.045991161
799,486755.958011842
800,174912.654597073
801,200006.803700751
802,109967.834420473
803,188935.598373422
804,582524.660179201
805,118077.278213575
806,227475.890949027
807,135597.549746924
808,223528.947706585
809,159702.044098279
810,106021.782953122
811,181012.851684258
812,144504.872197466
813,55997.0450072932
814,157925.552513533
815,116012.355489395
816,224149.105851459
817,136876.468797489
818,271428.06668878
819,155008.899523865
820,224470.645289792
821,184645.944254054
822,93028.8510965266
823,224905.206914887
824,139462.037933925
825,232784.898240672
826,384479.99725549
827,109436.777898767
828,189504.326045847
829,185128.061670796
830,147507.3791891
831,166071.188958156
832,151179.311341893
833,233487.411700885
834,166975.461420654
835,140395.722403782
836,128009.569740504
837,153393.82523937
838,99629.3162630398
839,145606.034726584
840,129856.720204564
841,139983.328438195
842,157516.338006394
843,174888.337259905
844,141067.171901628
845,153370.216945837
846,170963.190935014
847,212370.292550131
848,133490.206364792
849,239967.096743824
850,186915.916683843
851,132944.250779372
852,214591.401378637
853,164127.921558188
854,158105.151818668
855,170026.568406331
856,127948.250664525
857,146969.083359268
858,171477.957654318
859,151811.758726529
860,250083.286785743
861,189918.59463026
862,131450.138463443
863,151657.149886989
864,132868.690295136
865,243796.211443232
866,147872.388338291
867,249020.835905273
868,128994.154631361
869,168843.840870938
870,236129.269446859
871,109486.112443497
872,199970.470565447
873,116021.310788544
874,133007.045666695
875,67214.746964101
876,303117.165735643
877,132296.479770246
878,349313.843734433
879,148030.14923537
880,136705.138923417
881,157077.388489556
882,187653.10763409
883,178075.856048676
884,118483.68789165
885,100670.802882456
886,328862.143237657
887,144933.682809122
888,135630.667681674
889,268162.590140811
890,149481.395374595
891,122859.445149031
892,172489.27088694
893,154284.803298416
894,164981.687535924
895,118862.40763998
896,140987.445736624
897,105441.001954394
898,143014.068780425
899,603430.247831687
900,134984.666330828
901,110516.940213988
902,152795.540839424
903,179839.775208513
904,240365.015289424
905,125509.902199421
906,127952.961693957
907,255379.947667804
908,249931.343909383
909,130969.42668111
910,173625.48079486
911,154509.475270831
912,143629.009336324
913,88058.0185131604
914,145016.555076615
915,172605.237961942
916,75029.0402233404
917,35769.8634533251
918,135523.303405431
919,238150.09780302
920,176427.504181589
921,200959.628661515
922,146046.550614668
923,170009.29575866
924,192926.305809804
925,207390.727571872
926,175020.173823561
927,286830.926488231
928,176038.864971021
929,236408.399706649
930,222950.768541164
931,201669.743733357
932,117577.953333338
933,319908.09511678
934,188102.251520934
935,241920.822881061
936,79951.3856983273
937,185804.965170108
938,250992.323159504
939,239779.135826793
940,244704.72585386
941,151165.448519084
942,213958.498806901
943,149970.223335351
944,143013.446936962
945,137473.714190428
946,125002.8117522
947,142923.254147281
948,269659.385187566
949,192938.71006595
950,196518.159169003
951,129333.935781211
952,119910.795496625
953,133925.649077093
954,172046.538342711
955,127494.25636301
956,145014.564628907
957,123951.623146181
958,132340.631182702
959,188325.190088032
960,155152.182636748
961,116516.026801016
962,271736.888883748
963,154968.014045245
964,239867.624896927
965,215884.274842603
966,178455.31121398
967,160069.839952695
968,135298.41329466
969,37940.2975558838
970,140022.118296551
971,134160.854664746
972,172709.214837743
973,99921.6769120076
974,184671.928144918
975,167539.408289072
976,164939.469220739
977,85546.8153602945
978,199591.05220133
979,110002.529019122
980,138957.424836405
981,178449.785927601
982,336279.151741586
983,162490.391089814
984,255623.996650384
985,126017.105174575
986,125049.150499804
987,116998.961251
988,399511.004446922
989,195112.330448441
990,196154.288033705
991,344040.87191025
992,168022.911862754
993,186969.175607398
994,172124.273504358
995,338156.895882392
996,121620.305520733
997,136557.449011889
998,184840.786499706
999,90977.27886999
1000,197321.798831786
1001,81992.7121546017
1002,85905.7363839043
1003,232159.855020494
1004,136875.843064762
1005,181097.31480688
1006,149875.594774004
1007,163501.025023102
1008,87970.9661193544
1009,239674.509390902
1010,102078.762153227
1011,134566.601925153
1012,100030.055040241
1013,164944.331808673
1014,85001.1094718613
1015,118875.637056424
1016,226040.287508471
1017,204222.601180998
1018,187356.665203582
1019,159945.788393554
1020,210974.604253586
1021,175878.955670672
1022,197969.639263768
1023,87070.6400045912
1024,191047.923863637
1025,286221.825930514
1026,112667.302774061
1027,167074.637483698
1028,294237.678896532
1029,105049.869726894
1030,118133.685673374
1031,160020.797655809
1032,197019.624557449
1033,309492.018753052
1034,231350.310306073
1035,119808.754369869
1036,84009.1414112771
1037,315571.817621954
1038,285921.474160439
1039,97019.866052269
1040,79975.3211416023
1041,155008.058216237
1042,172962.670837116
1043,196886.450042502
1044,262166.076467535
1045,278090.427806878
1046,139511.198108498
1047,556567.429664508
1048,145230.876022672
1049,115010.188513977
1050,84886.3461359302
1051,177221.454165228
1052,198021.059307344
1053,164946.387279586
1054,144569.438287927
1055,254632.933303289
1056,179517.466298197
1057,189161.212697918
1058,246684.523857424
1059,333768.999887984
1060,219165.454796352
1061,213706.13691932
1062,80980.8217883192
1063,90112.4461978711
1064,110766.780310033
1065,154014.01444422
1066,327689.472937642
1067,178239.383302854
1068,167862.637585016
1069,151393.852844098
1070,135026.221268728
1071,135013.919866067
1072,154093.865100755
1073,91521.3313349473
1074,159228.864359886
1075,194781.156923111
1076,219490.830967813
1077,169964.982422319
1078,138653.078063077
1079,155320.477923755
1080,127227.211467524
1081,145093.87521131
1082,132990.045996677
1083,191117.255121859
1084,159601.809656539
1085,187198.056120219
1086,147108.144202404
1087,83527.9866246277
1088,254058.755210527
1089,135546.986692236
1090,196945.13139349
1091,92893.8853239763
1092,159890.669368024
1093,136634.729035132
1094,146244.729380352
1095,129171.6622749
1096,175588.271226219
1097,127095.218771135
1098,169856.945426972
1099,127830.414374476
1100,157033.99613929
1101,60018.965523341
1102,119462.861343291
1103,134971.514332507
1104,159489.748760183
1105,106777.774374448
1106,325201.991151718
1107,180227.30668553
1108,274488.893627311
1109,177755.889621351
1110,281262.359268442
1111,188455.945020404
1112,204486.878542728
1113,129751.639191466
1114,134464.453372906
1115,117009.530173689
1116,317937.068026836
1117,184194.081004218
1118,129973.083235589
1119,140004.848161071
1120,133661.578935619
1121,118275.566186738
1122,209835.568107916
1123,111738.40531
1124,117870.051443995
1125,163912.95955512
1126,114981.648864452
1127,176509.021216592
1128,258737.249670466
1129,214872.489617775
1130,139970.964442436
1131,135025.719420995
1132,93491.1085767555
1133,117611.457555812
1134,237433.364889758
1135,169713.900512825
1136,102212.961671316
1137,119457.658938913
1138,94120.7929605258
1139,196089.542368195
1140,143850.892930148
1141,138368.765467173
1142,197517.109861193
1143,423262.229486155
1144,80090.8194257049
1145,80009.968327057
1146,148907.223242685
1147,180041.19788021
1148,174808.27163212
1149,116580.037154704
1150,143029.217389031
1151,124071.248596303
1152,149861.343423495
1153,230007.616497296
1154,120679.160640428
1155,202074.690013937
1156,218030.908950051
1157,179949.185059594
1158,228226.502130806
1159,235044.8706025
1160,185103.93265473
1161,145992.080175152
1162,223336.936781385
1163,128996.670735064
1164,108966.303670334
1165,193867.292118776
1166,233298.556781781
1167,247014.229113061
1168,173688.890565968
1169,234964.793583288
1170,624594.566450753
1171,170996.48198978
1172,163016.865785926
1173,170976.911784986
1174,200546.065575898
1175,239209.694900625
1176,286053.914010805
1177,119823.417293493
1178,114726.535089129
1179,154718.176236843
1180,93030.5538494762
1181,249469.288308853
1182,392359.867252322
1183,745162.450584337
1184,120074.372137765
1185,186731.0019952
1186,105268.630201472
1187,94988.496552268
1188,262088.40944465
1189,191509.370546815
1190,189928.539522395
1191,168121.413019058
1192,173852.272862808
1193,124982.396514885
1194,164917.986895755
1195,157760.813886736
1196,174444.645635086
1197,217987.824061512
1198,144007.223687647
1199,177069.732018929
1200,147815.715718317
1201,116072.235910441
1202,199066.806202655
1203,117073.654635948
1204,210964.368818504
1205,153768.45326626
1206,272029.484403689
1207,107035.81463403
1208,207865.952869378
1209,139776.920474273
1210,290018.483382331
1211,189108.308629208
1212,164018.739076384
1213,112370.85132839
1214,145011.095393572
1215,134383.97038877
1216,124975.832107523
1217,111981.771798434
1218,229138.018481743
1219,80493.1531319893
1220,91569.214137373
1221,114667.5504042
1222,133895.082992637
1223,143129.610594066
1224,137815.272308609
1225,183977.198737516
1226,144993.128159361
1227,214054.255418173
1228,147618.165120927
1229,367453.550437417
1230,127086.040478162
1231,189969.947574459
1232,132510.827203132
1233,101792.735835108
1234,141956.61576849
1235,129936.252886706
1236,138912.465001015
1237,174780.939187557
1238,195235.313248329
1239,142352.575566854
1240,263379.656557445
1241,216749.864627592
1242,248247.615450527
1243,170022.813528689
1244,464948.763694226
1245,229362.411766211
1246,178185.296947192
1247,187464.230779809
1248,169377.711423835
1249,129471.815466578
1250,119089.755830521
1251,244000.60634741
1252,172351.097358712
1253,129835.963774877
1254,297841.761964107
1255,165609.988824535
1256,127561.879641814
1257,300674.901179307
1258,99847.8888641155
1259,189984.820347353
1260,150837.164346492
1261,181088.847081799
1262,128486.560841759
1263,161451.071439728
1264,180568.219806532
1265,180930.742806787
1266,183781.196626352
1267,121983.719559194
1268,378220.187963087
1269,380425.085959717
1270,144017.26472763
1271,259953.538889407
1272,185713.531508124
1273,137125.529790042
1274,176937.220809673
1275,139128.057441953
1276,136980.920719821
1277,161997.460398691
1278,197972.378689801
1279,239495.901967266
1280,68580.7962447707
1281,219939.838852621
1282,180032.597142206
1283,150503.163516497
1284,139030.752071589
1285,168967.290294669
1286,132606.12318977
1287,143213.036289257
1288,190024.171145837
1289,276287.979632789
1290,281102.495179111
1291,180177.883747716
1292,119490.416726794
1293,107465.389094271
1294,163249.072506379
1295,115120.61929163
1296,138033.675611174
1297,154640.645991963
1298,140090.812354816
1299,159986.976656145
1300,153942.586323711
1301,225589.609769794
1302,176847.232735646
1303,291928.191220153
1304,226159.419526333
1305,129818.899351978
1306,325523.561294137
1307,204585.422744242
1308,138259.629941515
1309,147062.215619314
1310,179103.012823319
1311,334977.041692526
1312,204485.142922083
1313,301328.018012954
1314,333297.043230939
1315,118864.786796894
1316,207000.832988505
1317,294486.606192904
1318,208735.784453556
1319,274653.422324538
1320,111180.860557845
1321,156548.589361323
1322,72485.3322158233
1323,193377.164238379
1324,82502.3039051018
1325,153804.754943991
1326,55024.8036004127
1327,79002.3505738186
1328,130668.167693585
1329,256032.800483947
1330,176088.822562505
1331,228279.78926796
1332,132371.297567414
1333,100145.879396617
1334,125670.845122618
1335,124832.231823857
1336,167830.443036566
1337,134978.643929508
1338,52481.1622729948
1339,203381.02710623
1340,128486.226698144
1341,122772.777058169
1342,155114.464604678
1343,229767.325477651
1344,176974.583688515
1345,157570.185949227
1346,108525.266104166
1347,262491.832656187
1348,282922.06523842
1349,215113.470045741
1350,121993.61095989
1351,199869.754283849
1352,170930.336941545
1353,135244.59648038
1354,409997.352419493
1355,235108.260361724
1356,170115.337085919
1357,109671.259858504
1358,150084.215801983
1359,177893.198864937
1360,315284.680996719
1361,188969.126304181
1362,260115.833027408
1363,105086.791460557
1364,157416.615101116
1365,143932.190864557
1366,217233.303542056
1367,198936.569861406
1368,126909.232351226
1369,142664.259703813
1370,231955.810781271
1371,105001.74568577
1372,165481.030535282
1373,273353.215861561
1374,465273.820828101
1375,251413.152267229
1376,240045.992650727
1377,90985.5732456123
1378,117090.704654812
1379,83853.2827015798
1380,167243.03436323
1381,58526.2496380751
1382,237261.714114071
1383,156995.611743262
1384,112545.129820527
1385,105038.908496183
1386,125390.878884758
1387,250003.660223596
1388,136002.097829283
1389,376768.047874092
1390,131029.491432899
1391,231132.267235056
1392,124054.441445723
1393,122974.633022891
1394,162989.817166679
1395,245197.505806994
1396,281705.940288755
1397,159738.793268572
1398,137576.150584908
1399,138050.929063491
1400,137564.97457918
1401,120017.612755875
1402,192305.445483112
1403,193242.608421049
1404,282819.650697127
1405,104989.089641681
1406,275090.636327543
1407,133008.108721476
1408,111866.440065081
1409,125704.700460358
1410,214678.672840702
1411,222807.007662114
1412,140220.092111029
1413,90009.769974813
1414,256840.671862114
1415,206842.909907189
1416,176728.34810772
1417,122609.383197527
1418,341232.862519758
1419,123804.656185358
1420,222224.789425842
1421,179471.962604737
1422,127661.179684359
1423,138847.951525375
1424,274907.794754244
1425,143790.434355282
1426,142085.067766653
1427,270810.698434042
1428,140101.24421069
1429,118931.571483381
1430,183054.875526652
1431,192214.529460437
1432,143603.191907701
1433,65106.5366072791
1434,186428.632966967
1435,160037.70485161
1436,173313.483585879
1437,120327.731660892
1438,394648.733682672
1439,149606.868752208
1440,196795.660629163
1441,191049.478112621
1442,147652.851187986
1443,312105.451316119
1444,121079.681876559
1445,180550.861953471
1446,128985.265301829
1447,157772.242100407
1448,244938.808467791
1449,111982.314826805
1450,91902.3643721446
1451,135952.945775285
1452,284869.359933784
1453,144757.228282297
1454,84777.3112896918
1455,185186.466898077
1456,177350.141383267
1457,210072.606769687
1458,266584.803809653
1459,141995.503876655
1460,147488.547894222
1461,142489.289487319
1462,117536.521274844
1463,187904.448718633
1464,201476.589712543
1465,181754.183403782
1466,178155.537564352
1467,189231.399965049
1468,165086.643212745
1469,203448.337660463
1470,124554.733619622
1471,147037.562455546
1472,107493.257752778
1473,108247.63811204
1474,143904.603819858
1475,121812.509884927
1476,341610.649483941
1477,275221.726241769
1478,269362.27429459
1479,286935.958980237
1480,532988.563162749
1481,369250.210263897
1482,190584.027015685
1483,173814.927967752
1484,168539.205461822
1485,173943.091864793
1486,191937.154289321
1487,324316.563558551
1488,197538.855066221
1489,222006.298495322
1490,233245.740072313
1491,192293.448161748
1492,82688.0138382999
1493,195540.273232026
1494,248897.614356341
1495,285147.88972754
1496,298049.80488087
1497,194964.225959571
1498,172092.263922468
1499,156592.558880139
1500,159556.019707607
1501,177004.526794599
1502,177349.102410237
1503,215796.005840485
1504,232392.285328601
1505,246704.129178673
1506,198437.502831533
1507,256377.379293644
1508,212160.19173976
1509,163165.370653394
1510,148282.405994044
1511,150313.22546637
1512,171124.755853899
1513,145974.935108655
1514,181268.926085971
1515,199758.753581874
1516,150812.710592696
1517,183130.067255656
1518,128404.95525503
1519,239918.721520006
1520,128518.819198178
1521,135559.804701786
1522,168588.441109138
1523,127515.008087349
1524,137947.656946758
1525,113321.402332035
1526,123247.158962992
1527,109055.342312953
1528,135278.813999564
1529,145572.619446252
1530,198400.593418164
1531,118799.761202234
1532,77533.4995170464
1533,158152.23901675
1534,115241.588184803
1535,137739.265016641
1536,109739.027830544
1537,69142.2084386047
1538,151051.85658674
1539,183180.271618311
1540,73126.4126917543
1541,164946.622694058
1542,128010.185471879
1543,205806.690676013
1544,95879.2870145196
1545,128687.490954315
1546,139504.345563409
1547,109381.699615504
1548,138493.054469017
1549,115530.896347865
1550,127881.2721411
1551,109678.612657115
1552,161634.500164361
1553,164061.380966375
1554,124708.812284411
1555,156268.114863645
1556,80259.9673707713
1557,104956.909536098
1558,119444.876376853
1559,81988.9464399529
1560,124829.241722771
1561,104146.531483932
1562,124610.182726915
1563,121808.559971676
1564,165876.82009464
1565,154908.664286095
1566,288031.173441349
1567,86458.5603585436
1568,224918.58237066
1569,151010.062411013
1570,135739.555613089
1571,114869.288452699
1572,161369.385088488
1573,271518.104525687
1574,105646.454898918
1575,246301.946522718
1576,266290.797816876
1577,172943.602143324
1578,144241.793148144
1579,153911.393817001
1580,186459.334555392
1581,135396.169562528
1582,128226.931968245
1583,303127.412666865
1584,203648.914150233
1585,137041.890051623
1586,54332.4450374354
1587,99898.3925361855
1588,150788.50759255
1589,100472.807739052
1590,126027.259210373
1591,128197.640236382
1592,104729.097010261
1593,122158.459584286
1594,198399.441578918
1595,109759.18382399
1596,272373.522456713
1597,171481.207966059
1598,241302.26473516
1599,162730.854529613
1600,162157.272232975
1601,53867.7586874493
1602,131243.146275054
1603,71563.5391966488
1604,271379.195216737
1605,239720.696438879
1606,168947.211719867
1607,172760.634127939
1608,208020.15866132
1609,170775.846121415
1610,155552.99924346
1611,140536.331581299
1612,168332.193960283
1613,166929.731397338
1614,130177.325326816
1615,90538.037809857
1616,70494.0944261072
1617,82898.5291102156
1618,128423.971860367
1619,136445.715967159
1620,218392.125394119
1621,144340.389994604
1622,164964.655857905
1623,276349.357336482
1624,199990.238719301
1625,120927.115143215
1626,173055.00025151
1627,189306.052797367
1628,293930.574793075
1629,197490.919720157
1630,346484.214155787
1631,201377.734725599
1632,231176.755337816
1633,167643.297134349
1634,187024.352754801
1635,175364.355700512
1636,170357.613695032
1637,218904.987661012
1638,190707.092573463
1639,184550.144732144
1640,247999.487087153
1641,183536.895107852
1642,273963.689650974
1643,210529.148854099
1644,242754.340923546
1645,255329.135719877
1646,157718.148080444
1647,157316.695090588
1648,133996.427023352
1649,138338.66308678
1650,122067.456364866
1651,117274.160221206
1652,99376.1457812894
1653,112950.0453325
1654,139950.691560382
1655,136234.698083974
1656,143344.282559626
1657,139726.274846649
1658,148027.346597161
1659,113081.975822104
1660,151634.677120456
1661,360410.20177607
1662,362131.756737765
1663,350270.768272974
1664,563149.670558486
1665,279618.459610774
1666,334381.966596242
1667,323294.365533594
1668,318163.97495135
1669,273280.897805391
1670,292604.817161774
1671,272828.194375505
1672,475402.902529796
1673,305599.862499175
1674,277036.89198823
1675,181914.984797488
1676,209905.254747397
1677,212232.710967849
1678,485974.580538956
1679,404441.336659386
1680,338181.115227695
1681,198428.868097924
1682,335592.520862275
1683,190354.139532754
1684,172693.560844433
1685,173454.340845883
1686,168076.449501873
1687,157928.813074893
1688,195120.320621276
1689,197076.764510402
1690,191927.925278952
1691,180709.997874289
1692,246533.36546207
1693,169252.690698176
1694,185371.561375059
1695,172903.690168676
1696,267999.588123359
1697,172756.657467923
1698,379819.501094315
1699,319401.66653702
1700,261679.145804324
1701,260707.801994627
1702,261515.513996303
1703,216588.324030784
1704,283924.007996949
1705,256015.672761758
1706,368391.844095659
1707,245543.827558451
1708,245199.427789597
1709,313450.133641381
1710,253553.916563115
1711,276214.184187122
1712,263784.795929036
1713,298407.130051131
1714,230651.157367641
1715,217144.420802162
1716,172575.662507754
1717,158575.230924703
1718,137775.420036402
1719,226573.420824068
1720,222594.827936829
1721,161631.669644293
1722,131579.715636505
1723,155934.940751181
1724,165549.687652087
1725,239037.658638305
1726,189132.690209775
1727,163975.998320516
1728,133981.391029861
1729,160581.46638841
1730,176176.270345422
1731,117452.350722337
1732,116734.881202937
1733,114330.209583633
1734,139462.863604905
1735,107756.865168262
1736,123954.159228035
1737,361934.841893631
1738,268134.698090926
1739,252124.396577003
1740,235975.392608542
1741,169184.518615843
1742,182758.296044125
1743,174220.633204863
1744,342508.094715939
1745,203368.853947023
1746,211026.705095526
1747,255135.737768561
1748,239997.985331189
1749,166364.809705487
1750,124493.353837341
1751,216227.249351993
1752,114366.01044165
1753,150515.76476827
1754,206244.959318604
1755,198657.935719747
1756,145698.825974935
1757,127973.568165317
1758,147006.947972589
1759,147877.906566485
1760,165891.787468029
1761,132873.263301601
1762,181246.520356179
1763,176936.976949544
1764,123667.191305074
1765,123462.481371141
1766,172369.343159338
1767,192050.088350927
1768,144369.51180168
1769,154287.20380595
1770,161957.646964791
1771,115279.816197125
1772,129406.789011422
1773,141182.93510117
1774,131380.292894966
1775,156700.463928765
1776,134290.601349995
1777,104512.4975332
1778,150140.188408625
1779,143248.603487124
1780,161100.289978125
1781,125545.294317058
1782,97867.9297707331
1783,132462.937936368
1784,119319.890523153
1785,113808.608663043
1786,193193.124091854
1787,150637.777665243
1788,69135.9969658801
1789,94770.2331989049
1790,76820.86654522
1791,162212.986652344
1792,153423.397708986
1793,116305.164816919
1794,156020.078659193
1795,121139.395994354
1796,144471.21529628
1797,110131.505073377
1798,132115.06169502
1799,113108.667488733
1800,122994.124849281
1801,124390.305471655
1802,129371.085029644
1803,147039.624547072
1804,126241.158066395
1805,132888.845122182
1806,123144.243718184
1807,132147.976985521
1808,113730.387713844
1809,114602.795203802
1810,141473.905942218
1811,90446.2060549278
1812,111361.400858449
1813,108049.351524884
1814,109152.944645186
1815,60058.0782193053
1816,97437.5262637132
1817,138786.501667691
1818,156576.152116151
1819,143535.633170123
1820,70890.7005064006
1821,135306.012002651
1822,179382.468601032
1823,45173.83543059
1824,114443.051129224
1825,157255.955387083
1826,114235.462040812
1827,95032.6973613724
1828,144668.450264033
1829,142365.669329399
1830,148822.039127812
1831,122862.113289579
1832,89235.1915026271
1833,143393.56174658
1834,117717.558672867
1835,84154.8963441296
1836,118324.40823908
1837,93857.2877366827
1838,102385.621333239
1839,114142.034430506
1840,185993.084459572
1841,126249.77650632
1842,80616.8576032923
1843,133990.326718506
1844,152022.718117004
1845,136522.337117635
1846,167183.487837826
1847,165780.963338981
1848,53653.9910490043
1849,99529.97513506
1850,135671.550143645
1851,156215.731111952
1852,125878.797332081
1853,175195.48636366
1854,157284.784526603
1855,123116.388965185
1856,259985.545934321
1857,158800.713198379
1858,131801.247861687
1859,113124.360134895
1860,159916.95640632
1861,113009.757975044
1862,283153.175327338
1863,267449.202426147
1864,267450.846383889
1865,348294.02702881
1866,315592.786983618
1867,228774.611906649
1868,323235.331739663
1869,212644.512347361
1870,224784.454542018
1871,248313.359762693
1872,181793.400779
1873,266158.349163469
1874,158128.458094853
1875,219943.857530718
1876,193311.019192156
1877,221023.551672411
1878,187882.117241464
1879,130692.900474049
1880,138046.894156782
1881,264758.894237779
1882,272051.909844786
1883,186393.923925399
1884,202015.288416913
1885,226561.39017361
1886,272756.084271986
1887,219607.252872748
1888,282305.69482518
1889,180092.717312153
1890,134511.745177964
1891,110290.691667584
1892,86748.4423146686
1893,141971.980117103
1894,124426.350230554
1895,140279.679641933
1896,131300.789926624
1897,122355.876743861
1898,113320.115926045
1899,132217.944259705
1900,145696.045658982
1901,180539.558786114
1902,132580.537411585
1903,221129.735405037
1904,113360.339469173
1905,210980.20705177
1906,116301.865298964
1907,192473.325376316
1908,118076.921225255
1909,136238.272070407
1910,133594.859445689
1911,176789.172677616
1912,296333.702571433
1913,158961.510398464
1914,78129.1367446734
1915,444490.784361433
1916,57826.6858394475
1917,209821.706135741
1918,137020.687883121
1919,184333.175595419
1920,143794.512377431
1921,389003.735717675
1922,305404.774117455
1923,202965.696736707
1924,230711.823434311
1925,188843.845703189
1926,418808.394996632
1927,135879.110775562
1928,157130.344507871
1929,102274.968841848
1930,129350.82771262
1931,137459.498643418
1932,144717.735391098
1933,228285.882072135
1934,177949.674932829
1935,175327.275332158
1936,208869.926980924
1937,204029.555982374
1938,170606.022773042
1939,229358.664343416
1940,185159.835241682
1941,159282.203902807
1942,190002.661603779
1943,183510.019176251
1944,425671.483629084
1945,402905.654634111
1946,141246.003951526
1947,344808.548965073
1948,136550.016855484
1949,257560.34982406
1950,196863.299178767
1951,245107.283632005
1952,209988.51326164
1953,174267.972426581
1954,215575.169273013
1955,147774.668963437
1956,379659.539699779
1957,141860.173993559
1958,325234.224663872
1959,126848.795449154
1960,123398.898285285
1961,124597.825822679
1962,93317.5703866725
1963,111198.340443396
1964,116567.752425677
1965,149489.190707121
1966,142829.606814549
1967,323430.420580031
1968,459122.846132388
1969,380820.446905031
1970,423501.954455753
1971,352384.727480666
1972,395307.422330779
1973,259133.475251308
1974,289675.323084292
1975,520392.427536678
1976,274510.303976575
1977,367804.567670251
1978,414117.372705765
1979,371992.981528954
1980,208389.751550466
1981,346787.378099459
1982,259649.662290018
1983,251282.682770954
1984,168120.422178048
1985,248530.952830765
1986,223713.781401042
1987,200660.711211116
1988,175061.291203095
1989,194641.749340067
1990,218423.7827621
1991,224695.893798234
1992,224156.13924459
1993,160644.096687369
1994,220239.033031879
1995,188452.064537704
1996,269593.91522359
1997,259113.17488577
1998,362984.587233226
1999,287891.13300878
2000,306009.297558532
2001,236873.66251817
2002,224922.33989025
2003,285763.635927862
2004,280076.353209701
2005,194145.303317941
2006,253618.473703677
2007,238787.609338837
2008,206233.155469409
2009,202240.414893254
2010,177728.658140598
2011,120421.167842794
2012,156986.239893994
2013,195371.695828
2014,186907.904725877
2015,176312.219370541
2016,194961.869401715
2017,188383.324237562
2018,147238.206035659
2019,138486.408015552
2020,109912.026525123
2021,105752.323973963
2022,210004.412456342
2023,148833.89663903
2024,261352.998977975
2025,398940.982892582
2026,188146.620928363
2027,151146.765826311
2028,150288.931758512
2029,148524.522099804
2030,245917.223161551
2031,216013.000069368
2032,232458.462965676
2033,254077.073818099
2034,171474.583291275
2035,222819.862934041
2036,189464.457773498
2037,193602.651280093
2038,236589.176238747
2039,253482.549406363
2040,267520.812961914
2041,277533.576387693
2042,215063.227907194
2043,170433.375061058
2044,152275.265247138
2045,180326.941992957
2046,149824.281814953
2047,147732.613008504
2048,136205.518843701
2049,140770.434141097
2050,165371.360325917
2051,96168.0459970244
2052,119029.81195632
2053,137486.123918645
2054,104201.122267503
2055,186892.876943956
2056,136950.025810247
2057,111528.025105707
2058,221213.215419142
2059,136810.509951278
2060,171292.636610203
2061,164679.781608651
2062,136868.358211554
2063,108910.883895762
2064,134005.328815488
2065,119004.996120426
2066,160809.528861236
2067,103149.155358567
2068,147488.372795725
2069,89079.2451513645
2070,100727.60692109
2071,95398.6172750393
2072,139755.375257533
2073,148021.816570191
2074,201306.048208925
2075,133093.468751771
2076,131277.852696974
2077,147505.977482166
2078,115085.519623478
2079,115252.552601039
2080,124738.098755974
2081,136633.642651114
2082,135899.686610403
2083,144267.702504686
2084,122743.297984492
2085,124255.499128434
2086,99896.7147490743
2087,115370.740203195
2088,96673.8812785817
2089,84958.7226105317
2090,147580.819704707
2091,91258.3595433556
2092,121804.253702945
2093,126113.476151794
2094,141371.845347819
2095,142052.149718289
2096,95132.2564259279
2097,135559.132095909
2098,150540.812427239
2099,61131.5163151978
2100,70019.8467762267
2101,121891.818442721
2102,133193.667200647
2103,108831.276245033
2104,160790.729211985
2105,150844.396584255
2106,76606.0860704168
2107,188914.440134705
2108,126389.872252183
2109,114276.977848659
2110,102562.461279368
2111,83740.1976321114
2112,153628.381883871
2113,123964.343446272
2114,126281.351518702
2115,161726.475843474
2116,112793.678358357
2117,154347.670033528
2118,117168.397940205
2119,115302.000336518
2120,114585.757294929
2121,81132.0130203121
2122,139462.682102076
2123,72655.7881026542
2124,148032.483103002
2125,113525.330729835
2126,152974.522619191
2127,132765.531414463
2128,130528.117028452
2129,75155.6446531726
2130,130881.846231053
2131,140395.299701352
2132,109614.293454556
2133,119072.583167928
2134,131639.731445847
2135,130690.180625368
2136,61143.9668608794
2137,101580.888100361
2138,131400.504404939
2139,154262.0371499
2140,149089.790614931
2141,136099.213903736
2142,127700.946131896
2143,158109.874546726
2144,105042.719052432
2145,133765.817381795
2146,157640.317902173
2147,136747.301009126
2148,152469.563964875
2149,146762.258610483
2150,229542.149624156
2151,119525.565789439
2152,136966.421068895
2153,189672.435783375
2154,126274.225533748
2155,116447.535168942
2156,286488.386542689
2157,223925.380761702
2158,219517.945521331
2159,176600.808140012
2160,165097.40879975
2161,259268.364556052
2162,332759.974694304
2163,309595.458094619
2164,220743.524283294
2165,213498.718816988
2166,156043.105357473
2167,221887.214954829
2168,234348.567490934
2169,211058.440433268
2170,190136.361804008
2171,141170.874177849
2172,133756.725379132
2173,161450.255751023
2174,222465.886458141
2175,279161.677005096
2176,314240.922753644
2177,244359.281405419
2178,203722.704179046
2179,147885.368451325
2180,158042.609898061
2181,170392.449831247
2182,220885.35815033
2183,183545.968979047
2184,118904.326296002
2185,109713.691926219
2186,138141.970558299
2187,147002.5114245
2188,159868.837096883
2189,284634.046491247
2190,71529.4443253778
2191,117459.143094788
2192,123261.863921502
2193,138716.524871485
2194,128189.483895595
2195,94239.1702001981
2196,116734.328104814
2197,109171.872493451
2198,134667.499334529
2199,122666.53883791
2200,166051.953483648
2201,130820.065000231
2202,243348.629972906
2203,161110.32841546
2204,194242.190834965
2205,127791.656755411
2206,152578.225830924
2207,257330.095107833
2208,264168.299940573
2209,221687.480405608
2210,134271.317650236
2211,95820.0622482487
2212,131218.636898196
2213,112399.075286305
2214,135447.030811661
2215,95072.9640729189
2216,174908.748690018
2217,52243.9528446797
2218,72278.874683335
2219,69493.4749827973
2220,74973.3400747521
2221,420356.627151807
2222,286904.49962032
2223,287696.046875857
2224,189367.009798636
2225,132004.594549391
2226,190464.749222095
2227,184599.70907777
2228,255152.976983764
2229,214154.190251145
2230,159024.548213556
2231,174750.651645292
2232,197182.156727024
2233,169567.525046151
2234,244330.079746692
2235,234127.046595011
2236,249548.294044876
2237,299460.253611821
2238,202590.992433241
2239,88456.7587969772
2240,155470.876342951
2241,149535.997097966
2242,108531.781770131
2243,125145.214760502
2244,83500.1600758346
2245,119443.165710321
2246,140541.558630941
2247,101200.364350774
2248,119710.593450826
2249,131756.345613159
2250,134340.609334617
2251,96223.4930251277
2252,182682.682174387
2253,151735.809925452
2254,178380.697316204
2255,168579.481197508
2256,186020.800586375
2257,212670.930706427
2258,169209.176264119
2259,193051.560783775
2260,138271.985135981
2261,176745.412445561
2262,177734.246635344
2263,379058.240937501
2264,409678.68448097
2265,141038.536936423
2266,416510.170723082
2267,394811.049311746
2268,459489.386219166
2269,146391.517748161
2270,193599.750493662
2271,240918.409637223
2272,210906.854912709
2273,183765.95324551
2274,185448.21710404
2275,175058.564012681
2276,161951.069593352
2277,200542.946099361
2278,141152.474173008
2279,128645.307742759
2280,106702.446521265
2281,162922.418891819
2282,183224.803023959
2283,108225.835580597
2284,136466.350580267
2285,143581.984422989
2286,114171.383799551
2287,417221.330449033
2288,275610.9977498
2289,432725.406138915
2290,516357.087800299
2291,296854.323828931
2292,411461.770388528
2293,610085.333917192
2294,456569.007374681
2295,494887.16497369
2296,294441.649236796
2297,343886.178420283
2298,313755.846915294
2299,390605.451600334
2300,329676.832436305
2301,316303.939061674
2302,263081.015011029
2303,245219.046534066
2304,217143.746089378
2305,200831.129443218
2306,194406.741169638
2307,192651.716152923
2308,226447.622432219
2309,274087.532542174
2310,228302.171971154
2311,165682.10395246
2312,189153.421080157
2313,173863.963247082
2314,219751.830166895
2315,148299.381809055
2316,178431.897033584
2317,199893.4013967
2318,188540.935201698
2319,182371.897981503
2320,179070.332579989
2321,240514.364762492
2322,177361.523384512
2323,193079.767910657
2324,176030.279675545
2325,169766.38652641
2326,161596.661949538
2327,219858.930562429
2328,217215.410716187
2329,196835.856479205
2330,171373.460493914
2331,374374.690101245
2332,381861.923884179
2333,318728.717196791
2334,286786.485575238
2335,279394.87481113
2336,336630.438238567
2337,199602.903355025
2338,246712.206467035
2339,178450.346179723
2340,322552.006509944
2341,220790.76531114
2342,245303.212619482
2343,214591.669170106
2344,240634.647777531
2345,245151.836958877
2346,227655.257994449
2347,236731.707318478
2348,252409.467851035
2349,180758.490555689
2350,301905.21248148
2351,231076.12209654
2352,224433.661481374
2353,279867.038150398
2354,164993.462452348
2355,140208.737378328
2356,144939.147408503
2357,190170.113600803
2358,193060.324588199
2359,120171.461531045
2360,116780.190373466
2361,143094.125543591
2362,278359.049445466
2363,117861.773923997
2364,147144.736467891
2365,208765.129299039
2366,199027.713581741
2367,229404.079593012
2368,215921.83763209
2369,240833.655644778
2370,177331.89748042
2371,186347.95168769
2372,197811.927901456
2373,329689.836585757
2374,291435.987148086
2375,353186.38283369
2376,308078.714424819
2377,337644.186253845
2378,153309.084111226
2379,231124.556138865
2380,156563.869881163
2381,182524.385341565
2382,204010.597528384
2383,221170.469355892
2384,256180.867237294
2385,174243.993389448
2386,120892.557745556
2387,134962.89830557
2388,91610.1531420785
2389,117510.109363098
2390,151346.364820273
2391,136303.119465751
2392,113822.962361776
2393,142868.195015559
2394,141210.968145087
2395,214511.698683917
2396,143147.543920358
2397,196700.359019248
2398,122627.029153297
2399,87833.1898030602
2400,77778.9010050111
2401,121119.629174658
2402,117998.605609461
2403,133684.324427381
2404,146786.781182972
2405,174284.825751122
2406,141034.724979098
2407,119536.62934311
2408,144041.171848908
2409,122246.783680521
2410,153961.913645347
2411,119204.889733227
2412,153964.359900394
2413,142047.545312571
2414,153183.640621089
2415,126556.068361616
2416,124751.144227674
2417,128962.638778982
2418,123058.125815419
2419,140997.275913243
2420,126220.625515901
2421,142802.815807835
2422,88029.7709686773
2423,129177.483521953
2424,149210.631472
2425,261777.901086856
2426,125410.758981157
2427,133900.056914665
2428,191068.791859248
2429,114429.557555493
2430,137436.751602949
2431,125875.261485727
2432,141059.767914951
2433,140614.331407257
2434,124089.306702546
2435,141461.074747861
2436,110094.539121287
2437,103098.625941224
2438,121340.784952375
2439,89765.4154096035
2440,136150.081528618
2441,92792.1314757659
2442,110288.508821703
2443,123269.457690119
2444,124697.81295913
2445,100594.613060615
2446,140456.6300353
2447,184998.901071273
2448,124904.387025991
2449,131806.099211115
2450,150064.665534575
2451,147737.349486565
2452,173723.923192105
2453,96491.8912073432
2454,131903.436690365
2455,113498.861177205
2456,127769.738140746
2457,132180.719031015
2458,153760.097373704
2459,106201.294300257
2460,133194.463090107
2461,128621.537319856
2462,133836.956180152
2463,121660.786701259
2464,171515.675180512
2465,139414.644432275
2466,150001.302527172
2467,122757.368484634
2468,84448.6410942313
2469,88555.6559131602
2470,189208.915071255
2471,241553.263148671
2472,174209.681927473
2473,123457.050379926
2474,67973.0482392268
2475,218504.408647366
2476,117019.783639136
2477,123141.880039448
2478,156102.408198272
2479,109568.637143574
2480,155811.327015076
2481,132967.009250615
2482,121628.328083337
2483,119280.337526693
2484,124128.906062903
2485,123923.863422982
2486,151530.291347717
2487,169748.742187234
2488,168817.72752128
2489,142171.496460038
2490,147947.597604661
2491,88924.9270757649
2492,195296.557547423
2493,144685.841955976
2494,132914.829804946
2495,80848.1370551638
2496,214696.834567001
2497,152340.879583926
2498,119230.472228986
2499,76906.8335227301
2500,137192.336832398
2501,139163.550585299
2502,149925.464358589
2503,88379.1516572996
2504,150857.63100881
2505,226512.964344309
2506,280218.971527426
2507,231709.615399563
2508,286826.103005701
2509,204751.42192178
2510,202720.962954898
2511,182933.525120347
2512,207685.016958934
2513,232283.065548463
2514,244308.236359906
2515,150440.0570075
2516,178813.572818467
2517,136149.193219441
2518,144742.046891085
2519,217360.547893871
2520,199526.548400417
2521,189333.198468894
2522,215819.07670537
2523,105466.021952412
2524,132512.215277111
2525,149671.506582738
2526,121837.685109802
2527,127360.883983757
2528,125871.430296486
2529,140346.601064291
2530,120182.375554228
2531,262889.28348453
2532,229966.297738719
2533,182714.96433586
2534,179695.47701705
2535,288980.625008897
2536,230911.281834888
2537,223169.42493968
2538,165861.260831589
2539,183251.440404599
2540,176173.15846611
2541,179839.047149489
2542,165392.063718776
2543,144047.442114111
2544,110001.83038639
2545,110686.600013527
2546,125957.401027741
2547,147543.789186114
2548,179068.109962479
2549,138055.249552676
2550,996892.421856332
2551,113928.047585533
2552,124401.740215907
2553,88356.0358864458
2554,86286.6255060201
2555,101763.293118362
2556,99844.4005862447
2557,99769.3898778848
2558,95891.5704866138
2559,125425.89315265
2560,180683.236202883
2561,167356.392036712
2562,165291.64113782
2563,159906.555293059
2564,217603.024020107
2565,140712.744505776
2566,172332.591667185
2567,147541.448231545
2568,189776.998619106
2569,223535.913849993
2570,132923.614836299
2571,222899.680295716
2572,133452.882403062
2573,196923.696937316
2574,293594.476361691
2575,144381.566958627
2576,109642.032413219
2577,160207.043490344
2578,71095.6495711194
2579,57517.5331434035
2580,86751.1023168994
2581,84218.4180252779
2582,104094.226694334
2583,330622.131719175
2584,166015.514564585
2585,194446.46321635
2586,212190.647141883
2587,210906.711699734
2588,153131.660885974
2589,139059.676042031
2590,193324.803968414
2591,242565.429031688
2592,189842.193989258
2593,278500.160168392
2594,187192.542155434
2595,191409.075512368
2596,289576.335657301
2597,186511.644716072
2598,294140.642002698
2599,366135.961570329
2600,127890.531624058
2601,129947.684004527
2602,79490.5732131548
2603,98984.0248209476
2604,75882.5933474286
2605,77000.0049332871
2606,164350.063048618
2607,208823.856768956
2608,193197.207965007
2609,178934.306808152
2610,89874.160568402
2611,737362.455540274
2612,178313.552956899
2613,124389.624032303
2614,128322.496114505
2615,136647.732746234
2616,141188.13712444
2617,201235.461722102
2618,174125.50037775
2619,200939.570891768
2620,182772.899033199
2621,187375.624106466
2622,179967.396942073
2623,240571.345569087
2624,279622.716065329
2625,259828.905481952
2626,162044.020237245
2627,154176.867965181
2628,485953.109097888
2629,431023.538508082
2630,433483.787947063
2631,493104.505318067
2632,412898.780186705
2633,431048.661067449
2634,441415.405147446
2635,169573.716753127
2636,181225.82449857
2637,180131.598201665
2638,283822.221169577
2639,180651.011524047
2640,145043.89980582
2641,109355.686597138
2642,183562.636493831
2643,100105.491891151
2644,145734.871524805
2645,107771.092930053
2646,94800.7158756185
2647,110032.514061623
2648,140721.920095702
2649,150331.259533531
2650,149579.955824479
2651,154223.572288625
2652,452533.872230858
2653,221099.270328909
2654,263439.268018486
2655,448129.055002506
2656,313154.315062417
2657,376583.250720154
2658,282228.785384067
2659,386259.726695601
2660,370931.716695015
2661,361057.349813653
2662,368491.663880453
2663,296765.815867009
2664,285837.859481153
2665,389998.453781631
2666,331810.458366201
2667,154831.781008497
2668,177493.789175375
2669,174606.600939558
2670,272297.726159643
2671,169705.796970571
2672,197957.77315938
2673,199736.987089077
2674,208603.945712833
2675,207814.985263612
2676,185163.683634549
2677,196389.648570374
2678,250481.382901628
2679,265680.375485127
2680,317376.049169816
2681,392060.058017422
2682,311392.333992235
2683,356446.332744372
2684,348437.882321123
2685,256741.0379348
2686,265543.959993996
2687,250569.714289781
2688,194109.732601497
2689,209841.320118436
2690,356113.91585772
2691,200840.042183584
2692,143299.902626903
2693,170217.152347424
2694,142649.220022141
2695,189918.18357961
2696,182678.154318456
2697,193383.592716656
2698,190139.377795151
2699,186337.962200003
2700,146808.501065382
2701,132707.881714106
2702,113879.815665761
2703,107734.320798539
2704,145319.198418045
2705,110956.563489683
2706,112596.116404372
2707,123922.177591548
2708,125453.239720577
2709,69392.8222009192
2710,120420.825622482
2711,266327.212990268
2712,370203.151948326
2713,179735.33726994
2714,147507.3791891
2715,175899.009468231
2716,157925.704561206
2717,206446.723172553
2718,210422.11468155
2719,142959.838360521
2720,169772.646325308
2721,130054.777022395
2722,175895.760877977
2723,137275.628603356
2724,123189.098063551
2725,128812.337692382
2726,139326.109528892
2727,199918.288438411
2728,172717.305218436
2729,141999.3648981
2730,140518.988362493
2731,115683.631764543
2732,132065.914834413
2733,177947.513555163
2734,131171.970971984
2735,123433.557912954
2736,144519.607744631
2737,120949.295350156
2738,128857.209769998
2739,151905.863489528
2740,142441.446012642
2741,147775.590880017
2742,151345.942424838
2743,151512.124063094
2744,159670.169383197
2745,130867.935343547
2746,140772.43709527
2747,133086.915702736
2748,123402.079035177
2749,135523.421685969
2750,127080.827731829
2751,136380.987789213
2752,180449.449161244
2753,151570.212613372
2754,310564.632313766
2755,145400.405428176
2756,90718.1025817451
2757,99069.6658583934
2758,90823.8647347478
2759,183808.781184962
2760,127527.490562741
2761,145912.564025875
2762,135737.251101777
2763,187257.445005873
2764,151427.075015149
2765,269369.588288535
2766,93497.346696048
2767,76293.7836234571
2768,156067.849085311
2769,127477.748326858
2770,124131.758657974
2771,94297.4515913029
2772,121708.576889476
2773,182829.931466007
2774,130092.882964753
2775,106017.503489323
2776,152161.960581772
2777,153826.980778256
2778,110046.322242198
2779,127689.7233537
2780,85559.4474882563
2781,92819.5161053009
2782,108260.515590586
2783,113723.365007697
2784,117322.905493224
2785,139706.632655928
2786,83105.8146949731
2787,114875.835044829
2788,76871.3541675802
2789,176216.483157307
2790,98134.6584978107
2791,145612.304936411
2792,79220.8565581152
2793,115368.009586485
2794,86694.4040638272
2795,114008.236931548
2796,74558.4897504007
2797,161496.079027049
2798,119275.830565625
2799,122212.350362524
2800,69734.8717348916
2801,111296.702265301
2802,141169.299030197
2803,144293.80201064
2804,157162.095425487
2805,101765.621845005
2806,86768.1275899948
2807,176375.033570786
2808,152635.338472036
2809,124777.323526337
2810,123014.919610112
2811,160121.019932907
2812,167844.268480181
2813,154571.846566486
2814,152603.719992214
2815,87850.1541794005
2816,228903.385339815
2817,171920.427784405
2818,126701.640816032
2819,171972.785451311
2820,136713.981761421
2821,107606.799997435
2822,198878.111992237
2823,407521.801716926
2824,147836.38895995
2825,155319.303231589
2826,127759.258755631
2827,143407.654328595
2828,234581.568951258
2829,191144.845144597
2830,220591.888802431
2831,172802.870252932
2832,275763.838156398
2833,301920.967684709
2834,236110.682480951
2835,201408.476858871
2836,200471.397731293
2837,187294.761091157
2838,147225.776238272
2839,184003.033245843
2840,197214.017682135
2841,201548.391153724
2842,216745.371076159
2843,134678.790478093
2844,161136.206774106
2845,129964.795232131
2846,201414.479597757
2847,220806.403961545
2848,165684.784437621
2849,204996.758639111
2850,273345.045124059
2851,166695.523896546
2852,236465.104164296
2853,252774.419145115
2854,136997.654021742
2855,209648.786708723
2856,194669.721415896
2857,187414.107762086
2858,206253.599228986
2859,116446.726204659
2860,146296.775694346
2861,122089.874253219
2862,149343.497109833
2863,133258.998499596
2864,199723.661624
2865,131926.68484834
2866,131866.751199641
2867,93397.9506096525
2868,92403.2940958905
2869,106283.118655318
2870,114969.75691343
2871,94383.8370359808
2872,49883.6863620487
2873,93067.9032157468
2874,150634.344187469
2875,108743.801710759
2876,160844.457409781
2877,170513.304934989
2878,144302.057390438
2879,139290.726806873
2880,97129.7075479361
2881,120134.14517375
2882,190194.623975912
2883,199180.065836644
2884,220951.5555019
2885,178713.339006096
2886,225997.334472931
2887,82580.5664146613
2888,147364.988360337
2889,48815.1405980813
2890,83034.5914550107
2891,148861.626044332
2892,42916.3652967288
2893,87418.3553565928
2894,63840.8897732743
2895,367736.916470824
2896,262802.659600345
2897,212573.398132141
2898,143411.031640907
2899,196588.473182411
2900,179456.770353276
2901,205098.46321623
2902,177603.146212345
2903,310896.721344708
2904,397756.772375814
2905,71626.3473246091
2906,190985.241089073
2907,113184.964777277
2908,135948.435655784
2909,138925.451515421
2910,85835.1759891181
2911,72664.3299345422
2912,159904.242841444
2913,75026.6160391145
2914,73942.4678402548
2915,88208.8222607074
2916,72239.1610173741
2917,163088.861444666
2918,115001.125477526
2919,223788.092406432
