"Id","SalePrice"
1,204614.467002373
2,186642.475841544
3,215589.564191161
4,179256.987765325
5,287849.134482104
6,152911.936697103
7,266212.776772001
8,223205.342862263
9,138671.665420747
10,118083.522302809
11,127602.664309711
12,362861.42583834
13,127866.554143081
14,228308.326959349
15,151086.000505427
16,133511.362560047
17,154557.573367606
18,105936.26393839
19,153672.433707609
20,128036.598907351
21,311961.955460793
22,131339.238530116
23,238056.422492003
24,141953.608599721
25,148446.782767669
26,253726.768413283
27,129932.79893709
28,286684.229263518
29,190859.434829109
30,75196.3941885835
31,52275.3463883326
32,139534.952652529
33,187180.083245068
34,170415.869577506
35,259618.789944067
36,292124.012740467
37,145265.00859965
38,157797.226138092
39,134455.171932109
40,86606.243331314
41,151852.809706039
42,156716.428979459
43,140159.418718492
44,127959.118187073
45,136907.072925479
46,272002.985291239
47,258020.802804891
48,249103.508906776
49,97673.1654599821
50,130727.646057601
51,173999.895162858
52,124666.068481328
53,98887.7482052049
54,348021.50975112
55,121737.003147808
56,165053.565277947
57,201081.99811683
58,194195.233933903
59,460672.55016456
60,121144.788424665
61,169236.094927246
62,99286.5783482571
63,206264.068922373
64,127582.421181723
65,229824.847523919
66,296473.599782249
67,235180.517542109
68,213218.749001972
69,80892.067551948
70,212412.752882672
71,280345.903955735
72,121836.049101275
73,195634.35011134
74,143125.726747688
75,99778.0538265271
76,96749.8849894327
77,116512.419991287
78,114523.151922897
79,125088.092692543
80,115964.384996734
81,193773.603732435
82,171498.558162662
83,241626.567718187
84,124475.134144213
85,167818.74725782
86,248172.686912752
87,177693.729725804
88,165307.736740362
89,80111.2790465339
90,119929.566935486
91,104945.212645618
92,122417.093088531
93,136536.381404715
94,174973.803457703
95,197738.638321556
96,182623.245781052
97,213434.244527193
98,114201.888388009
99,88141.7337861761
100,107559.739506368
101,222025.910925135
102,168368.593388194
103,117740.219433146
104,188139.147893078
105,153303.462012153
106,238527.156514804
107,93491.4175616721
108,96856.9912034944
109,107689.997207629
110,208463.817334117
111,148998.548156572
112,172620.638440035
113,336360.225454789
114,205296.348969396
115,240320.374119581
116,163199.672232852
117,113650.982310002
118,144961.752290669
119,357305.924391352
120,172481.423282726
121,166927.890080779
122,99477.6358325138
123,141171.600035549
124,161125.180956
125,167948.265847841
126,94316.5833517514
127,136556.082951945
128,95691.1128577597
129,148985.582200684
130,137938.940989109
131,212429.204942518
132,215218.426321475
133,147314.510517826
134,206941.402402108
135,170578.529092239
136,190515.404777215
137,139184.858217197
138,192359.579206633
139,247873.516507223
140,202575.965038177
141,107492.660852811
142,240448.70073838
143,134023.606972046
144,215955.472566007
145,142466.666210951
146,136073.35947403
147,102715.270997469
148,217516.55588268
149,148645.078328535
150,111096.55010937
151,134000.717814108
152,343978.476794076
153,186635.665892721
154,201632.89715693
155,103909.932609631
156,87144.0960376171
157,110973.127617104
158,246893.166295359
159,232909.878657941
160,281640.43674208
161,166167.395627299
162,387652.697252283
163,233796.497444065
164,99099.1267246447
165,150459.928281614
166,125970.502777879
167,182287.170876447
168,340335.87101829
169,195547.813118711
170,223489.006438766
171,120093.162218825
172,193279.651233794
173,224748.752598721
174,156473.617013594
175,188119.458257288
176,211691.192393968
177,218046.65037529
178,164092.934713365
179,472768.347352383
180,104683.924737097
181,171478.7874849
182,176063.608393161
183,122524.959665505
184,196676.22483476
185,128058.031224605
186,442031.770715024
187,178306.809495238
188,122483.612992725
189,140313.445222706
190,254277.93270848
191,283942.420713533
192,196712.738702397
193,201327.052947811
194,146719.210947935
195,122903.654809806
196,152443.215379029
197,290457.349014258
198,244431.870728597
199,122049.339024443
200,285338.237585346
201,128264.296180014
202,163383.88159117
203,116860.005429631
204,151802.90128351
205,116278.791832446
206,181692.54318251
207,137454.049889175
208,128548.303218127
209,242856.06291819
210,152571.53965847
211,91575.973555309
212,165685.915855534
213,243060.566802229
214,145347.228376328
215,152035.028569039
216,134769.213521901
217,205125.391298087
218,95001.9228193269
219,246770.113408152
220,177310.828099517
221,207642.505395909
222,209892.965836021
223,176174.954494027
224,118240.438255771
225,422219.79404067
226,103290.871794477
227,271515.285409433
228,105344.750097963
229,121540.974939932
230,195189.312875735
231,135056.247430893
232,356037.266925776
233,106168.781665988
234,125448.188786553
235,208859.256854171
236,98996.5323608055
237,190750.91491839
238,214391.333944869
239,270683.143743597
240,123832.628442114
241,252147.657038543
242,104371.651344959
243,95454.4025389799
244,134237.409399787
245,233475.299623043
246,222779.569299463
247,137985.046172016
248,148590.38031626
249,189607.043696335
250,286679.533048976
251,77037.8234500355
252,251567.605839193
253,175952.675337328
254,157703.735949347
255,143261.581807504
256,223504.437794983
257,195199.376675676
258,234118.381675894
259,211771.333911214
260,102468.900921898
261,171670.424979838
262,316566.889117207
263,158228.147304003
264,125515.426669669
265,87971.1113442535
266,178449.751789707
267,184076.255795051
268,180395.15264649
269,107757.426839493
270,155202.560983637
271,268286.330769057
272,212074.443890595
273,313270.333218639
274,166602.568606266
275,127359.973222324
276,171478.937479669
277,203408.015989776
278,113772.056311796
279,365599.670486329
280,207488.161324558
281,208553.898904168
282,190700.642883468
283,208738.566754796
284,246853.14975776
285,190406.026867463
286,165769.68852443
287,175519.700070356
288,100509.519343422
289,116910.700590394
290,146300.071689565
291,241308.820524611
292,123227.088644379
293,135787.094646535
294,243845.233172113
295,174952.017864847
296,149326.391216252
297,123194.433650073
298,219620.631510088
299,173077.72154108
300,148005.847180582
301,154405.808055062
302,271257.237084139
303,225237.95574876
304,139697.326468469
305,341543.963998471
306,295953.873486755
307,238136.119108399
308,97462.5417301663
309,99895.9258001008
310,354208.64674374
311,170907.222712235
312,139267.714709004
313,124206.408000318
314,375326.37497672
315,166113.231199439
316,191305.057640044
317,249088.612323627
318,259559.32868202
319,305620.296193161
320,192389.865631975
321,352832.25888041
322,331258.101287144
323,268880.461092438
324,119761.269159103
325,269356.612710744
326,96190.7586199671
327,283441.694901035
328,145117.567883013
329,169498.25457247
330,78009.8760915555
331,141084.609924637
332,134341.329133436
333,319017.647305786
334,203497.88225568
335,200148.870194991
336,237832.302665019
337,354574.556734249
338,212030.418845475
339,204299.490559155
340,153466.476748929
341,216373.263085818
342,90866.0499326375
343,86426.8121161661
344,259591.853007688
345,93727.3383864398
346,143921.980766605
347,143964.409380233
348,177057.588671928
349,182845.783981954
350,420652.194140969
351,291319.989803281
352,204647.488798807
353,97373.5396733066
354,109197.106038777
355,149346.891770657
356,167629.838577633
357,170445.33572003
358,140031.317880345
359,121585.493056682
360,266872.808296663
361,152276.668665994
362,134159.446774615
363,181572.265924147
364,117134.406937627
365,186874.864406847
366,125593.948556429
367,169408.289521453
368,152236.823472254
369,141567.627040552
370,159985.233534007
371,176960.958868756
372,118720.028044764
373,125210.199294143
374,125390.328825432
375,205860.825854892
376,63469.8482575852
377,136180.594779408
378,291058.717566433
379,326501.673627352
380,185247.944898998
381,139927.377624167
382,196741.173879404
383,201310.448948284
384,92064.1061805874
385,251682.40658656
386,193714.917715862
387,85709.9869071715
388,141942.145779745
389,192510.340866659
390,421424.238401007
391,123722.434384982
392,215871.954315988
393,107041.827957688
394,88560.9415670098
395,109617.539853784
396,132591.595649004
397,125673.098298765
398,150125.6598685
399,73018.4859220648
400,203874.570009034
401,227727.025958086
402,188285.290849222
403,105639.883096788
404,244343.451759181
405,168496.366920038
406,147351.537994212
407,123291.922752109
408,161026.634883752
409,266517.432030966
410,301683.678926012
411,78398.4445932047
412,132744.120148459
413,229667.195297165
414,110797.908763034
415,235852.322048596
416,188861.668244138
417,156842.075756815
418,223191.526404671
419,105970.826532274
420,138061.777467968
421,205820.531885303
422,216236.547271842
423,117606.703865006
424,326811.034814246
425,142953.844664632
426,148251.381934243
427,240601.31477598
428,112286.451233157
429,194003.930320729
430,181200.951733636
431,103569.902979712
432,104454.561142576
433,115814.954864372
434,176552.798456158
435,86433.6753837381
436,210925.367317046
437,118010.52086624
438,118303.783867053
439,101274.914907615
440,136792.286884132
441,514385.566353398
442,109382.71811482
443,149208.863408066
444,195455.107150392
445,217678.421948406
446,158173.004615715
447,205391.419899226
448,203908.513899343
449,119867.363182557
450,107705.456317645
451,107911.374830243
452,235326.317387412
453,192708.228934002
454,205561.344929442
455,168733.480204793
456,172328.684926887
457,103609.175694086
458,202610.337092781
459,167143.719746223
460,119031.385733094
461,251711.411667792
462,164528.085414529
463,99852.9927091836
464,182097.360967828
465,118968.429439617
466,179625.443065621
467,168794.844307757
468,148675.777076447
469,251302.726610669
470,182278.92174661
471,217099.938306027
472,196987.196640283
473,144535.298358818
474,363360.775042656
475,238921.700309758
476,133029.130807629
477,208235.880632
478,378706.50067327
479,294051.558779207
480,98670.8659476614
481,354227.490894713
482,347235.291571691
483,168106.032983719
484,158621.39519453
485,134834.010755386
486,145009.706809856
487,143891.933314264
488,172468.453129517
489,133772.558967019
490,97377.6755517419
491,112516.301760989
492,145201.719991951
493,170295.743406215
494,142332.187427866
495,93788.011904901
496,51057.4127600493
497,448111.831018004
498,171130.164860213
499,131405.664330773
500,125211.525807039
501,112424.722930813
502,209090.827116924
503,138346.954691398
504,275101.245018205
505,141400.241844944
506,128172.500912846
507,221300.716270134
508,182060.81203595
509,163544.857898647
510,134798.325517425
511,150435.093601587
512,205546.968531683
513,119706.545240788
514,144707.096692563
515,94830.5497217722
516,377806.250096616
517,178668.906670574
518,259010.628790203
519,197322.694315986
520,242411.106149215
521,95479.6662348159
522,151750.918065697
523,164813.140962863
524,213757.895548797
525,286837.944624299
526,178221.811324854
527,128457.59492005
528,433667.901224769
529,88189.5096516219
530,221035.59133738
531,185895.308313731
532,133048.486865584
533,108496.527550557
534,44228.8832613058
535,188163.411336178
536,129658.277521048
537,192911.168157615
538,119057.600615048
539,136835.071521944
540,248769.96549434
541,316487.543321105
542,259900.435527593
543,206501.742599111
544,138907.577950867
545,198940.2163005
546,237811.830428153
547,176920.852898911
548,126680.36924133
549,115669.83641008
550,228334.524116134
551,146292.531996323
552,114177.828649461
553,261813.225923805
554,107776.68155938
555,265404.686876913
556,109393.570732993
557,137279.834550537
558,111605.732937693
559,189662.608589214
560,198265.734888358
561,158844.855501707
562,162783.224967561
563,115329.565869934
564,163484.777432088
565,251424.145837719
566,122057.752664439
567,321691.638348307
568,200676.355969853
569,303947.024250735
570,140361.45709009
571,154182.313310502
572,125085.629428912
573,204368.231588014
574,168191.868792878
575,126238.389275941
576,116697.85642643
577,148045.547447998
578,154825.568608049
579,164728.603824581
580,125821.995477729
581,177955.86473166
582,325753.224652122
583,113684.300192687
584,291361.238695317
585,130582.849083598
586,348381.412481554
587,116706.80974971
588,131882.563679095
589,184929.781112263
590,89595.4722927039
591,189148.325308564
592,425770.113317992
593,145153.691082425
594,143047.343986926
595,119075.022773177
596,330496.365686422
597,116633.204408607
598,200093.881058492
599,201617.726847754
600,147057.258741702
601,255447.240940807
602,125971.592136452
603,228662.227912338
604,157262.98262572
605,220269.383733992
606,199976.227133207
607,149639.783411799
608,175788.686118476
609,324667.585401155
610,116184.333066781
611,319508.422946224
612,150332.181427643
613,252155.7991348
614,133186.715799817
615,84426.4130309335
616,154683.825583482
617,183140.283617631
618,119832.636185568
619,319419.687417379
620,315044.974535542
621,74791.1598514087
622,261934.563883999
623,131874.083715005
624,174219.892334802
625,164894.633210557
626,145169.784617978
627,127334.266984278
628,162037.788464467
629,158254.742366056
630,159383.181507562
631,114490.906830272
632,222329.563361936
633,137512.657379894
634,136734.922197898
635,141644.756686056
636,206809.392621487
637,64786.8899277439
638,105643.729370103
639,90224.250094298
640,265443.73598082
641,255362.72552513
642,239331.649196111
643,359838.683653597
644,141617.385525128
645,322142.75948992
646,139024.280217319
647,103874.185058697
648,147063.260198892
649,157072.170138267
650,85791.0945692613
651,199931.466257387
652,110492.258138148
653,194563.946864067
654,132288.42252884
655,344664.644905195
656,94492.0578290861
657,143448.466851209
658,157136.908812926
659,125066.845765193
660,167977.855469816
661,199308.07404224
662,409154.845416666
663,127042.373958852
664,130486.240989947
665,372058.912591476
666,238976.872026745
667,168510.684525177
668,206636.807387035
669,157863.661515732
670,118842.821942895
671,174509.670722582
672,112201.065348988
673,168996.997008214
674,257339.314547603
675,153333.596014967
676,148510.685214874
677,92231.2012809187
678,107895.324825462
679,343842.355181016
680,128675.871375031
681,132391.886637308
682,126400.687321395
683,183975.227924376
684,287958.015057105
685,204278.812997723
686,208914.235383473
687,218541.66520008
688,160096.854403763
689,299865.167952933
690,183524.211640691
691,156620.968782882
692,743318.754392007
693,283744.322050208
694,106249.194837646
695,128278.727603557
696,167897.787449331
697,92111.8629551458
698,124994.491589046
699,140148.926097178
700,187313.414784402
701,302446.324648735
702,143992.424048443
703,342579.752667082
704,144785.93866147
705,205742.048442769
706,63147.8949978688
707,308757.93460407
708,218121.428456714
709,191093.718959151
710,118847.803561985
711,65745.7668638674
712,101056.246318961
713,202787.450412533
714,117209.027580034
715,167242.529605487
716,147985.565038083
717,193906.041832794
718,157347.68225937
719,303174.841221602
720,130529.075058595
721,257370.002033758
722,145430.158111337
723,118603.23589799
724,128017.050349076
725,294107.271770059
726,116039.614798663
727,245363.95546767
728,192173.338942871
729,151185.995240131
730,92849.0577992891
731,244764.640773131
732,183741.692428431
733,225224.460150407
734,136099.345335592
735,115903.52345768
736,159323.743658401
737,87251.7327975707
738,242377.65442755
739,151626.083755379
740,193919.286086802
741,119328.257763357
742,142286.271308665
743,173691.278762015
744,147426.410366342
745,207487.878787629
746,335163.747806436
747,231957.403607721
748,222636.553693572
749,231809.90397702
750,90161.0708072275
751,91535.3201845523
752,165083.628783986
753,203726.326437326
754,264915.568441419
755,159360.150665479
756,157134.138525905
757,214997.176041243
758,153347.018396616
759,164912.21148935
760,288552.084371675
761,121779.697141964
762,110285.067832419
763,190674.388844338
764,318821.248385789
765,229110.238677691
766,246783.347492519
767,184477.402539087
768,166066.312798784
769,225953.984679091
770,473492.985962659
771,129126.385186136
772,114502.416993612
773,139756.172945758
774,116195.962750864
775,311423.254798269
776,163598.477764882
777,225883.113947538
778,135281.296320747
779,142114.030840326
780,147766.039678779
781,171117.386444812
782,171850.762847498
783,189109.488286402
784,162291.70499685
785,120164.329197305
786,159163.741231436
787,123251.994209975
788,228113.633091418
789,105791.403468145
790,219275.960454599
791,171164.191626466
792,154607.170490338
793,235632.60138672
794,221753.399691441
795,195827.090027358
796,160433.679435102
797,143203.170280337
798,107425.175392481
799,464591.098533341
800,148689.808636321
801,198432.515165685
802,109500.714910288
803,190364.086294185
804,467208.453904145
805,115738.232889866
806,204205.609587098
807,127225.689889335
808,204891.128860514
809,138416.140599783
810,116980.54318147
811,162160.831848198
812,154471.816804797
813,73156.9304684451
814,154535.804501603
815,114468.923509083
816,203818.155035082
817,133031.418888277
818,277391.270928508
819,152972.996996429
820,226263.38996612
821,188536.929565092
822,91776.9900655277
823,198983.279989855
824,142605.527714529
825,228630.749602327
826,396873.749527957
827,95578.466718042
828,195976.09912622
829,181834.676508848
830,155637.224380645
831,169525.914628146
832,156779.890563022
833,227933.296725328
834,166044.99804434
835,138815.447361425
836,126011.891023317
837,140443.506910592
838,104257.916413399
839,142404.040136617
840,123601.708227144
841,130399.878832852
842,143923.050686112
843,157071.094655829
844,127817.034859825
845,140823.53830505
846,178699.134328371
847,201761.026848922
848,127952.311112099
849,226213.787552271
850,178840.502953762
851,143156.434372446
852,203092.706965571
853,162750.391585311
854,169146.501745153
855,169580.16052366
856,142782.918034027
857,147637.47311723
858,160045.39174989
859,141270.697441872
860,247660.198410081
861,177665.045901558
862,132565.203255688
863,145496.987952213
864,137475.628913757
865,194836.988477259
866,137877.922287022
867,261942.282468331
868,129865.010042194
869,158050.753926082
870,226758.83490997
871,105227.312426591
872,181643.637276951
873,116628.391843173
874,130241.415786564
875,98253.9490203031
876,301315.395969863
877,135347.358430648
878,333514.577540538
879,146844.028824027
880,139132.739592676
881,152148.198041169
882,190781.226361568
883,172480.046332113
884,122311.713225617
885,115656.608341454
886,269518.692972627
887,154842.760534265
888,138890.906916807
889,289030.034899592
890,163347.255296551
891,121702.338825903
892,170306.352197365
893,150079.334755984
894,153448.020862363
895,120545.779582256
896,162862.335338594
897,89142.1272558732
898,145423.201846642
899,492452.54717157
900,137854.211218787
901,114438.718686625
902,149269.730331154
903,182464.940747122
904,243804.370734369
905,120428.299869572
906,122694.72115121
907,259599.176134157
908,236879.761747511
909,128776.471293657
910,177352.122810332
911,161395.419328745
912,146613.412726032
913,95897.7746501482
914,147487.633054255
915,169517.022297284
916,86851.1965345595
917,67521.7060256076
918,131752.489263608
919,246009.197356228
920,182010.834672651
921,186020.224421906
922,161722.372066118
923,179088.614337807
924,195247.936054004
925,199763.806527365
926,150400.225274497
927,287176.284259331
928,187293.488143357
929,237688.541354597
930,222422.836402178
931,216714.084134938
932,122261.538255692
933,288618.304053811
934,196646.743612239
935,238925.750350835
936,93137.1013624847
937,187958.696851351
938,226222.113604753
939,243212.411378709
940,217799.668886724
941,181158.95516206
942,224170.30873486
943,130329.167088885
944,143449.767202327
945,154917.085433678
946,146453.688178071
947,140285.558030993
948,276374.292036735
949,202612.952950645
950,185617.834305266
951,137605.82404091
952,119905.033573194
953,128217.211010833
954,156163.010910993
955,127847.981272698
956,151670.215253429
957,130646.402608392
958,125876.004262189
959,194584.316583381
960,168773.330981824
961,121828.40070389
962,284593.652830185
963,157936.948709184
964,262652.757117363
965,217381.477764159
966,176138.74424214
967,146804.194007003
968,135393.532951854
969,49569.0934864595
970,124544.807887367
971,92778.5649119473
972,179864.087864032
973,124390.72725128
974,199003.670881573
975,169681.418072924
976,172238.130981207
977,89949.8899860993
978,198512.405829034
979,105918.774118247
980,141021.322083343
981,182132.003731174
982,321140.326206692
983,176947.049455846
984,251710.708455592
985,130098.457770593
986,117180.580648811
987,135100.455270283
988,375092.313134526
989,189953.564992859
990,191505.317041532
991,314269.56355456
992,189235.91041567
993,206050.239664625
994,168962.838598691
995,346143.231383849
996,119375.282029095
997,133594.644361952
998,168042.463877897
999,85305.6703978765
1000,189825.978957437
1001,82706.9313655693
1002,91377.8193716083
1003,243522.697079823
1004,138527.034785409
1005,192647.152169242
1006,136815.757918721
1007,170126.510562721
1008,90353.3049110366
1009,229501.52841761
1010,104279.870719214
1011,123676.225172937
1012,106098.092647526
1013,162485.495116167
1014,88552.1605706007
1015,120052.767742527
1016,221624.5242587
1017,218780.350455342
1018,199470.192590428
1019,169967.86134342
1020,198307.563646729
1021,152594.327487844
1022,201894.448546011
1023,107811.017574539
1024,191543.150316309
1025,309419.726804779
1026,120905.604248346
1027,142761.205299076
1028,303965.368679243
1029,119625.557409101
1030,119847.821618046
1031,134068.389666768
1032,215738.812044883
1033,330920.603728354
1034,240873.070324582
1035,127184.06833719
1036,86572.6026194684
1037,300829.492522023
1038,259955.543713986
1039,96176.9927907319
1040,87985.0720809395
1041,153561.759223948
1042,175397.473837441
1043,196571.099533717
1044,259952.633097801
1045,327747.846861198
1046,119167.151521918
1047,460693.996779718
1048,141921.144771547
1049,130654.81910957
1050,98478.8440076115
1051,182473.112546375
1052,190606.409018912
1053,175886.192723582
1054,147979.763683833
1055,257808.941565571
1056,166813.705417508
1057,208708.556617101
1058,230941.07488309
1059,327555.821436924
1060,193026.513486102
1061,210277.02114007
1062,83889.357497967
1063,117043.529512988
1064,129120.073969832
1065,147929.631754995
1066,266091.625069259
1067,179012.170848163
1068,173351.989978627
1069,164977.275666979
1070,127197.167095791
1071,124358.894515063
1072,155401.143948726
1073,106420.527718604
1074,157542.873057143
1075,191559.536325318
1076,190480.766663865
1077,152671.692312369
1078,129130.979460744
1079,150650.591322929
1080,133315.304941419
1081,169699.029151668
1082,127720.178114759
1083,195872.143814515
1084,151677.379453861
1085,175484.036567083
1086,157852.206563762
1087,93207.7744147911
1088,262640.706327802
1089,145982.981120272
1090,205616.876687797
1091,90137.7763356512
1092,157788.768114206
1093,163767.618915178
1094,153534.475852519
1095,130829.852053344
1096,175243.59733613
1097,118246.252315511
1098,167190.521773402
1099,112204.059596884
1100,179635.31074845
1101,68838.4598505796
1102,120294.426128609
1103,130472.0160459
1104,150028.572944634
1105,108753.603807632
1106,308288.737231994
1107,198271.801173363
1108,230832.65251416
1109,174278.885081353
1110,298799.462320392
1111,183075.038998152
1112,194536.534021736
1113,120791.503644959
1114,135444.13494658
1115,120789.979498175
1116,311444.62741093
1117,191141.887862705
1118,139227.70878096
1119,129014.216043223
1120,125484.165404148
1121,106887.267573822
1122,216991.883853486
1123,98638.6656840014
1124,105142.262870199
1125,168752.996691522
1126,113785.860796919
1127,206379.675170078
1128,230897.306955251
1129,209707.959373616
1130,129837.940177648
1131,133606.327171278
1132,114705.878023155
1133,128541.410086622
1134,240597.459998834
1135,171609.268847963
1136,105397.143273395
1137,125807.189001699
1138,97611.147546868
1139,211225.649729613
1140,121161.1910626
1141,129986.225561059
1142,182612.220666497
1143,409057.288056483
1144,100087.748103294
1145,86241.3416642981
1146,130802.68200812
1147,173065.770014271
1148,180186.380625103
1149,124553.699041642
1150,154623.043706894
1151,124845.431990665
1152,150460.981067062
1153,213279.006740858
1154,113421.274657556
1155,206477.997803747
1156,203756.716657983
1157,182930.0049939
1158,209354.662000195
1159,228235.206127245
1160,182059.878449519
1161,146938.515956264
1162,221079.039135613
1163,129066.992565124
1164,119965.445029689
1165,190270.292503458
1166,217266.077055611
1167,240138.029742275
1168,194839.360623999
1169,210177.878623811
1170,594447.161044175
1171,147989.611695967
1172,162776.954663588
1173,161039.130592038
1174,196378.453201952
1175,230636.268147203
1176,310349.762974683
1177,126837.357601002
1178,122315.014036695
1179,136718.043756682
1180,98589.6192379837
1181,237780.528034244
1182,301244.358782779
1183,619699.046998845
1184,133659.065142009
1185,192864.239224706
1186,124319.844728936
1187,102704.175509794
1188,265315.887838205
1189,189010.071837414
1190,198770.79073761
1191,172231.364600142
1192,172185.80794141
1193,128807.332045777
1194,168638.863382933
1195,148586.353465541
1196,163673.053754372
1197,221666.369316076
1198,142811.371184077
1199,175507.704007007
1200,134969.442476741
1201,104089.527618077
1202,194155.054978639
1203,136682.916639382
1204,207051.972600782
1205,144431.190378275
1206,295597.311306059
1207,115478.780190773
1208,206376.025088638
1209,141842.143650848
1210,292057.128760419
1211,195249.78131391
1212,206992.005568719
1213,91436.9492008915
1214,131665.74687578
1215,125667.88793935
1216,118136.445089621
1217,132804.994254787
1218,232039.133529748
1219,80017.2591539725
1220,100427.793770899
1221,114129.535107662
1222,127807.993909753
1223,152654.337133835
1224,142240.392823165
1225,200892.182635988
1226,139766.043916053
1227,214343.971341945
1228,145822.829784782
1229,342487.076278739
1230,135419.950830084
1231,181751.768993017
1232,139251.398004149
1233,103515.11322436
1234,139289.591610404
1235,115671.50404387
1236,140631.443755625
1237,175723.493660877
1238,206487.754511609
1239,146312.790390614
1240,218698.870557148
1241,207498.819892217
1242,255726.650916834
1243,159953.257234349
1244,436205.885511261
1245,201790.461826696
1246,188637.664514548
1247,189455.170686249
1248,150685.003460969
1249,139908.475644524
1250,120311.769936847
1251,244649.962549868
1252,194412.934613332
1253,121117.788780597
1254,260699.842187747
1255,189966.129486311
1256,136049.356513516
1257,290203.829048719
1258,94345.6139539331
1259,183966.515458978
1260,158307.933358971
1261,186797.882886167
1262,125607.884029819
1263,139844.775110757
1264,165006.497183358
1265,169443.871137283
1266,173676.590087626
1267,124925.40003009
1268,315838.904391462
1269,399700.319318037
1270,132074.203164204
1271,243777.522827948
1272,182899.624204817
1273,129331.876636564
1274,171524.622565979
1275,145790.169871727
1276,140303.90307869
1277,162606.833286521
1278,194686.97471796
1279,257752.936081913
1280,91809.7691648487
1281,215208.255973249
1282,185681.480925128
1283,146023.624347566
1284,138694.749626828
1285,182890.487016152
1286,130604.788701651
1287,155111.776543394
1288,170164.481414305
1289,244179.18189426
1290,276613.113915958
1291,163132.554781984
1292,113360.032168667
1293,113299.521754818
1294,184382.509187504
1295,118529.821651739
1296,133354.1830958
1297,144472.014277277
1298,150891.265766561
1299,205386.564200669
1300,154203.498060929
1301,220787.176517741
1302,163264.032092282
1303,311112.912842079
1304,217326.459149865
1305,148733.141064987
1306,308365.23862284
1307,206415.06268472
1308,139652.183506065
1309,134156.497311187
1310,171020.226349491
1311,325006.323229626
1312,201461.070992039
1313,301299.096717074
1314,334749.230017543
1315,113816.839647925
1316,186955.827800193
1317,260141.552639971
1318,191651.511819895
1319,271845.101621381
1320,109432.41856495
1321,157646.550079175
1322,79631.3207082406
1323,219177.793492928
1324,85155.343196951
1325,261243.576082336
1326,65525.7435198231
1327,86526.3197314402
1328,140199.503657624
1329,234311.46826684
1330,186150.529858133
1331,238017.823068551
1332,127989.900581427
1333,107831.325946953
1334,121787.697078402
1335,117612.048032201
1336,161800.430401448
1337,147427.961169897
1338,56960.9194416415
1339,220381.272194925
1340,128069.062495167
1341,114141.88782674
1342,162220.109489423
1343,250607.367825936
1344,176463.574459898
1345,185441.231793355
1346,90793.4309254079
1347,260545.986109193
1348,286116.845273128
1349,233561.671093544
1350,125504.451885104
1351,196441.242045701
1352,169685.780336797
1353,140448.288323052
1354,405169.392873371
1355,243046.192292008
1356,190009.424964008
1357,115297.183310808
1358,155409.457631843
1359,166987.333038666
1360,351713.636923748
1361,177049.214076639
1362,241403.607037691
1363,126660.576335024
1364,168507.123621706
1365,155722.205949499
1366,206253.025294241
1367,206449.292851936
1368,130072.501945221
1369,141785.869309454
1370,237473.209854347
1371,110904.752714514
1372,173531.568502121
1373,256790.015607418
1374,477385.632965006
1375,244535.146207706
1376,250943.274566233
1377,95709.7902128084
1378,130739.016206953
1379,103457.095103366
1380,145855.575247444
1381,68742.2191977221
1382,222455.75793896
1383,149872.457676454
1384,135942.938674982
1385,113029.146672787
1386,117601.262902352
1387,251459.336627176
1388,139066.225332716
1389,327107.562140428
1390,134387.246303542
1391,219914.418324225
1392,139669.587750556
1393,125515.726792619
1394,150879.509997571
1395,238789.876454386
1396,290345.231429185
1397,148319.00819238
1398,134101.987729953
1399,136748.079441739
1400,152792.530559546
1401,120940.067978129
1402,189434.927623028
1403,191126.076953074
1404,264190.403204059
1405,96907.6051176577
1406,272389.328656945
1407,128552.071666201
1408,116229.314412275
1409,114759.147110396
1410,213813.038828727
1411,219101.18324878
1412,156570.230048719
1413,95298.2223624131
1414,263379.280439027
1415,183122.769391815
1416,219963.033986
1417,128808.860944442
1418,325712.548559746
1419,124400.346160965
1420,224129.153935299
1421,165142.744181519
1422,145350.808476197
1423,143161.749010579
1424,222219.44145145
1425,135069.769268492
1426,149370.054272662
1427,255388.804034111
1428,132413.466115206
1429,117119.667226786
1430,187388.260419095
1431,178537.792023692
1432,142124.868743625
1433,97258.3426332418
1434,189068.991254734
1435,156775.75466176
1436,192822.156787388
1437,119953.960706977
1438,345142.94657067
1439,141816.48189812
1440,181307.685642013
1441,204199.724696237
1442,152371.648403538
1443,324223.410946909
1444,110809.468101217
1445,189843.788832868
1446,125777.921215344
1447,145058.395234744
1448,259570.796771756
1449,106465.306809197
1450,94930.549421572
1451,130194.315919747
1452,249217.857382616
1453,136778.656914711
1454,124051.018691014
1455,179968.123795938
1456,174263.19490946
1457,205288.902977153
1458,253002.599633623
1459,131856.911903419
1460,150583.926984052
1461,121333.815618003
1462,156207.172412137
1463,181594.441014338
1464,196996.918585654
1465,191777.123976433
1466,172750.441516501
1467,178887.123497517
1468,165239.348836101
1469,195772.995784569
1470,121779.521502789
1471,196732.402072992
1472,102689.493966172
1473,100086.317534034
1474,153422.174063491
1475,123639.352831497
1476,347863.65705223
1477,249798.127869755
1478,278989.779154998
1479,266698.97533387
1480,510594.206021532
1481,342239.06706921
1482,207713.913468019
1483,174328.428965647
1484,168320.209293611
1485,179796.860201983
1486,195532.132069073
1487,328699.392787486
1488,239121.076354612
1489,195795.20496914
1490,223130.728847635
1491,189341.509149432
1492,92866.8003644861
1493,179755.253926024
1494,282733.818802343
1495,292149.721857019
1496,224679.706774823
1497,197109.244625158
1498,162419.940105089
1499,161083.953623251
1500,157059.870676382
1501,170529.677610383
1502,160227.34159879
1503,258272.025554976
1504,241950.271600041
1505,225444.365383813
1506,198923.977753197
1507,248492.20349185
1508,191592.639371302
1509,159855.510151887
1510,145153.450566372
1511,138369.649348313
1512,173778.011398438
1513,147630.336984985
1514,167547.041737957
1515,194581.841684908
1516,149371.729152915
1517,171299.581011926
1518,136439.419999425
1519,214190.012725449
1520,131832.30836638
1521,134936.774309768
1522,171363.10895254
1523,111877.484680769
1524,123846.975839028
1525,123720.319547188
1526,117541.828414469
1527,104521.321176667
1528,142854.037504181
1529,146195.426305714
1530,186047.328754353
1531,112198.928928812
1532,101680.885763074
1533,142635.238181152
1534,130159.615018479
1535,150170.236925843
1536,105860.961389474
1537,76760.6630971774
1538,156152.608986193
1539,197241.994823525
1540,92280.4800676921
1541,141929.659319471
1542,132413.986179721
1543,193235.268780637
1544,85254.0007392329
1545,120708.460020361
1546,132418.954412187
1547,125451.921537394
1548,132957.256968796
1549,115935.720443207
1550,135333.697649756
1551,116591.32719642
1552,128426.450730657
1553,135001.51338749
1554,125949.695790182
1555,160467.713441947
1556,95005.6834971165
1557,106177.835246531
1558,106410.054135387
1559,95196.0994404115
1560,137708.462657591
1561,115172.304831621
1562,128587.506620562
1563,120653.506077365
1564,162412.868691621
1565,141577.857244607
1566,238333.954781243
1567,84081.3813268079
1568,225527.296522628
1569,122956.982803963
1570,140032.881476302
1571,121496.905545381
1572,146944.16615543
1573,230307.972530801
1574,114460.561126948
1575,224458.759466736
1576,254352.152823298
1577,179513.180061684
1578,148095.50565815
1579,146182.432777559
1580,193987.745550033
1581,145816.743039393
1582,125072.940756458
1583,307164.165878297
1584,220847.771752259
1585,142430.643516231
1586,76235.8176415281
1587,104288.603507821
1588,148373.545690302
1589,100177.458996334
1590,136801.506890678
1591,96636.1073641351
1592,122130.356945352
1593,127449.999160421
1594,122690.355636706
1595,106498.662434912
1596,230839.178772909
1597,190764.689066432
1598,219348.128207087
1599,179054.170699373
1600,167397.736658307
1601,67492.4050626637
1602,114729.99440543
1603,83366.1226630539
1604,261635.886087671
1605,254855.181143945
1606,171304.465561573
1607,182098.986529625
1608,211923.692038682
1609,176445.400213748
1610,144753.414139629
1611,138648.69141607
1612,164781.373936082
1613,163959.159066467
1614,120970.985530987
1615,90923.9956454724
1616,80535.5077370605
1617,93413.585797723
1618,126946.665734919
1619,135916.527722214
1620,158905.233628232
1621,141967.093200865
1622,139774.928788143
1623,259281.743586915
1624,216387.439839392
1625,122419.971687761
1626,172921.921843984
1627,190092.024595975
1628,287573.778876427
1629,178883.998649556
1630,357379.942462931
1631,216436.775452831
1632,235599.389275558
1633,170434.914669704
1634,187454.997880799
1635,176465.270315552
1636,155898.407658394
1637,194781.759627588
1638,199903.90676416
1639,191447.669896082
1640,261608.381943532
1641,186562.93642304
1642,224607.826257486
1643,226884.078614917
1644,229099.840079746
1645,199693.735011507
1646,161046.850428066
1647,164151.542387414
1648,130604.073732778
1649,137080.759729709
1650,118737.247536388
1651,124042.690604597
1652,104135.121623077
1653,106324.037244819
1654,148733.34771158
1655,149715.859659543
1656,145427.143427861
1657,148165.906255749
1658,147225.392194031
1659,130653.356185846
1660,156074.468568961
1661,426761.657127391
1662,405545.017871684
1663,359645.066975135
1664,502943.981450664
1665,287653.137492794
1666,329651.224226023
1667,363636.076614867
1668,313446.159655372
1669,279520.699066273
1670,321386.017615238
1671,258856.245999037
1672,445966.272099026
1673,289464.242618411
1674,250540.051007214
1675,190987.238543336
1676,197773.052338694
1677,216598.29761373
1678,494618.597324471
1679,376667.299707681
1680,316217.676013157
1681,227773.733112605
1682,312023.686815014
1683,191868.942004285
1684,180034.509285283
1685,170578.279086607
1686,176278.215065928
1687,169175.168231759
1688,190732.015667585
1689,194089.23313599
1690,196244.453081585
1691,185028.406230039
1692,256419.432211381
1693,168976.596746227
1694,181452.872666709
1695,164232.065213687
1696,272787.376324096
1697,170470.795051987
1698,343171.807255672
1699,298086.560254119
1700,241318.094794468
1701,264686.792182103
1702,248605.427263865
1703,243388.180084889
1704,282291.032851333
1705,219137.991464631
1706,400113.8028935
1707,200309.350093954
1708,196904.464257639
1709,272292.065340968
1710,220447.729016586
1711,258651.941326268
1712,260263.826920919
1713,265767.971829576
1714,218329.942168285
1715,204755.597862298
1716,183991.607832005
1717,171481.177271481
1718,137284.650233954
1719,205224.232105206
1720,235233.08880939
1721,164268.027513635
1722,127620.674540704
1723,153290.685012747
1724,204521.56097868
1725,232264.010884893
1726,183138.463510621
1727,161965.855227468
1728,177706.009888569
1729,165277.649800792
1730,160773.033824336
1731,123273.532441969
1732,129127.663976937
1733,119366.305662024
1734,123355.727544331
1735,132796.706503205
1736,116185.607731422
1737,331994.104029624
1738,238191.551168393
1739,267909.731366447
1740,218552.881407457
1741,188071.192474488
1742,170521.016143118
1743,174579.725090583
1744,305891.820924202
1745,204655.262835251
1746,228134.167823057
1747,216486.550551566
1748,246209.606641085
1749,147563.563677584
1750,139813.344164202
1751,250843.245631215
1752,121378.568746601
1753,145327.837308758
1754,204515.184114174
1755,165924.975723866
1756,124711.050176881
1757,119326.414487765
1758,143592.424135511
1759,157148.177989729
1760,159861.147996871
1761,151133.790789703
1762,177340.5248313
1763,176868.796292765
1764,118361.052225105
1765,153977.109650792
1766,187913.058211311
1767,231944.746830829
1768,140836.187135167
1769,171877.888380916
1770,151441.682421509
1771,126937.385206614
1772,136145.980663351
1773,121246.244651487
1774,149399.481228104
1775,139623.484110768
1776,122558.459654905
1777,105943.040487073
1778,141650.472723659
1779,112291.577621533
1780,174182.652524601
1781,127909.865689286
1782,93718.5480247676
1783,138822.613281601
1784,108379.484623369
1785,111394.202954575
1786,132685.675395926
1787,173118.70878014
1788,60229.4924163946
1789,98214.2511176868
1790,82324.6319877838
1791,193007.843037977
1792,147357.065672192
1793,126973.274339107
1794,156171.768734844
1795,138184.690054419
1796,124813.126004718
1797,123714.010863251
1798,124289.379206243
1799,112595.963300777
1800,125698.339582369
1801,121201.393732957
1802,140037.051595626
1803,149799.008319726
1804,142483.748533056
1805,141230.824569412
1806,136860.396430237
1807,134998.274171799
1808,119209.89730872
1809,118238.949102652
1810,135307.6996504
1811,97920.7309963787
1812,97475.518183405
1813,120703.835821916
1814,89526.1375667092
1815,65598.6610911219
1816,96167.1824185749
1817,106616.194222658
1818,141321.740611549
1819,117988.277519287
1820,77152.3562398458
1821,114705.620381956
1822,151568.811334117
1823,63012.0165649079
1824,128419.238967469
1825,141753.638199955
1826,106108.941367594
1827,102741.412548994
1828,135502.485238891
1829,114189.853519022
1830,144752.456021395
1831,147683.916833194
1832,90165.6428337284
1833,140682.872615807
1834,125277.261373901
1835,119522.203909374
1836,129718.791245797
1837,88239.8588186076
1838,123515.782069426
1839,105093.720434081
1840,149770.029305781
1841,133712.424302584
1842,93310.4457994754
1843,131919.965628122
1844,140885.500801973
1845,137941.354448582
1846,149299.419486539
1847,155203.789021034
1848,63054.511307107
1849,109238.294146566
1850,119325.124482788
1851,147276.169650876
1852,122511.409588525
1853,130515.920354535
1854,171810.919500004
1855,141779.273162566
1856,220666.696295526
1857,146103.686246875
1858,144012.202934711
1859,120545.779582256
1860,142547.199119905
1861,119943.567402858
1862,333472.346546462
1863,326975.767742414
1864,327009.014076461
1865,335979.864835568
1866,314342.441968521
1867,234129.991250056
1868,281005.943854287
1869,203975.111488031
1870,228700.995488239
1871,245272.232253902
1872,170235.50026605
1873,240477.587022349
1874,149042.902007957
1875,207916.850250252
1876,198059.807405714
1877,210520.445952398
1878,183716.785582238
1879,125961.626061399
1880,136914.319096444
1881,254232.081691825
1882,248937.377360296
1883,190031.242438396
1884,205920.177951523
1885,246041.165192335
1886,275492.347197985
1887,208376.492444751
1888,274943.491140352
1889,169063.763748579
1890,119548.83679171
1891,139021.552923034
1892,101768.220828026
1893,129075.598578426
1894,131039.087273688
1895,134516.761240669
1896,123500.120937025
1897,120654.978253647
1898,124404.674268756
1899,163220.441385671
1900,154754.023888602
1901,153662.529988959
1902,145158.128860029
1903,230040.017381831
1904,127725.723505449
1905,199511.810946364
1906,137320.145109388
1907,216419.09104793
1908,118855.634905165
1909,136199.840218261
1910,127500.405163797
1911,216887.449913246
1912,321182.132596227
1913,123109.845575736
1914,76980.4483338069
1915,298351.818927603
1916,59202.3904232156
1917,256517.760560961
1918,142780.296109485
1919,173270.326217869
1920,164739.597184724
1921,346543.403292233
1922,288111.745334963
1923,228205.423425207
1924,221711.040238502
1925,204199.206768461
1926,356304.289257003
1927,134115.687547103
1928,155971.432017166
1929,126712.435086796
1930,129774.34244508
1931,143903.334357799
1932,140448.907618545
1933,173957.875812348
1934,182318.476717508
1935,169180.79335465
1936,190172.215848192
1937,179797.719638724
1938,164538.289312394
1939,227974.349230162
1940,189310.59053117
1941,162685.705701781
1942,180353.705367351
1943,209188.252865327
1944,325333.036301849
1945,353616.866797528
1946,132100.922507301
1947,306886.005657223
1948,141623.171672163
1949,226451.52574537
1950,188164.802551143
1951,243483.534334385
1952,211932.730537925
1953,165928.714427497
1954,180985.190469345
1955,136384.154050414
1956,335736.6539271
1957,157349.537150719
1958,311423.367166448
1959,142672.49658614
1960,113955.494036833
1961,119494.569049026
1962,104221.893753881
1963,110226.514443102
1964,107133.678200252
1965,148654.77693433
1966,148529.748894724
1967,294518.844367468
1968,416158.625974048
1969,372888.407995556
1970,436852.105586326
1971,513458.112644438
1972,352796.216140649
1973,258337.265311317
1974,310293.211031587
1975,426318.175861381
1976,270536.138557525
1977,357464.619319678
1978,363751.735263203
1979,323032.466533759
1980,203406.932721235
1981,341351.441475952
1982,217332.605203729
1983,203242.399975432
1984,172994.967698478
1985,233386.136773369
1986,220514.231417121
1987,187925.69833484
1988,173799.44786821
1989,194732.469786974
1990,209062.105703094
1991,237037.275777872
1992,213209.361431847
1993,175678.086375926
1994,243849.611559203
1995,187337.407284416
1996,240641.32671022
1997,293710.29269279
1998,330873.865969758
1999,248609.420417287
2000,319259.317240734
2001,256081.950624975
2002,240256.158357074
2003,254322.919609221
2004,286928.880275922
2005,218329.6010994
2006,213505.909641832
2007,251261.128783166
2008,199747.510988544
2009,187887.239290857
2010,189333.871119923
2011,128845.806578372
2012,170509.464469143
2013,174906.021562935
2014,178619.717026263
2015,193187.909097543
2016,187537.017018782
2017,194226.8977704
2018,125472.214715569
2019,138281.691883564
2020,111698.624399135
2021,109511.290794755
2022,172745.73859916
2023,148288.847879666
2024,254407.326280358
2025,357341.895831705
2026,171087.767605373
2027,155029.927269411
2028,164354.955936153
2029,161189.430464417
2030,262170.166136307
2031,235269.83173022
2032,240726.421418077
2033,256064.470776633
2034,167574.848801536
2035,220785.376735599
2036,192725.441761315
2037,193990.025480081
2038,294715.256831438
2039,213115.607381309
2040,231304.659061477
2041,287971.409628707
2042,203278.007830552
2043,175787.525237047
2044,155757.12857411
2045,210913.206995525
2046,150759.79048337
2047,144215.710542934
2048,136883.243667468
2049,148974.818662392
2050,177944.538610016
2051,106013.157945357
2052,127664.809936999
2053,146063.888909165
2054,98670.5515549467
2055,147223.610845003
2056,146616.618313989
2057,117988.410185775
2058,216639.770277675
2059,129013.034373252
2060,168284.963395136
2061,185596.714100979
2062,128324.95926608
2063,116180.740512155
2064,137039.079402536
2065,117272.876079348
2066,160334.124755272
2067,110527.806868195
2068,152710.121021888
2069,90038.3478830103
2070,115404.100667628
2071,97213.9167160723
2072,140199.88338973
2073,138739.455797613
2074,189774.142701632
2075,145035.345000554
2076,121786.640214229
2077,150330.325330792
2078,123942.09970072
2079,133190.849073099
2080,124240.492882386
2081,130840.466629464
2082,132306.460209079
2083,141678.769382335
2084,110522.698919429
2085,119921.082606456
2086,119132.72354535
2087,123357.069582662
2088,105562.532748172
2089,84508.4207068017
2090,128194.86829794
2091,103321.399512747
2092,117625.396604677
2093,115961.068788703
2094,114523.433893207
2095,146658.20006394
2096,81687.7030315505
2097,107122.271610484
2098,141893.434576396
2099,68767.7210272799
2100,80682.6080315201
2101,107688.795517691
2102,131181.148281372
2103,103036.56573378
2104,141691.599661109
2105,125387.235526303
2106,70609.4166120865
2107,206196.325834954
2108,113796.44494228
2109,107499.377751765
2110,132137.792173028
2111,130011.173176468
2112,138139.12570164
2113,124122.282812479
2114,122511.993619208
2115,165691.422091152
2116,118727.515723072
2117,150714.453867043
2118,127166.160348983
2119,113328.428622116
2120,123618.83812262
2121,93940.8269639254
2122,110954.01447752
2123,84511.6858514793
2124,163632.428639645
2125,125646.215365449
2126,146039.503279987
2127,171914.695834771
2128,129065.691159874
2129,89751.1013910809
2130,127170.456806285
2131,139247.677360268
2132,116154.739326365
2133,114228.878149574
2134,120818.847090963
2135,89282.9627023935
2136,78752.0228979677
2137,113679.176762839
2138,132139.209591678
2139,148813.617731499
2140,137063.470536267
2141,154124.208936318
2142,125567.575315053
2143,143141.015449805
2144,124166.326933225
2145,142259.664537573
2146,171439.973149692
2147,140752.815193129
2148,134180.80982497
2149,148420.043106286
2150,221187.715683778
2151,125370.080310528
2152,163455.867139457
2153,164207.145768551
2154,102625.344661788
2155,143171.963741509
2156,260634.757420911
2157,227418.100114013
2158,227340.976655954
2159,205005.792319833
2160,179796.818886321
2161,241943.250134443
2162,434102.73326497
2163,336357.169231025
2164,250116.853776938
2165,191474.922164031
2166,152828.276791217
2167,223133.408738672
2168,198729.217667416
2169,195164.010576201
2170,216482.552271105
2171,147799.454118324
2172,135858.110168409
2173,154360.32784477
2174,229510.616670109
2175,302234.464854454
2176,311489.542011277
2177,239456.487350595
2178,212644.913198518
2179,144727.048397333
2180,223663.25414209
2181,190134.826759218
2182,227000.847333086
2183,188551.625330683
2184,124351.784467965
2185,118716.137327821
2186,136665.858958272
2187,156690.46202465
2188,161229.497820759
2189,279090.467135669
2190,80638.3171837722
2191,86520.7970097405
2192,93372.0370302883
2193,112868.904548938
2194,108203.975461942
2195,110176.737999569
2196,105455.634823345
2197,114184.074556378
2198,158594.110809808
2199,171942.011234755
2200,141340.311224387
2201,147008.527171902
2202,194940.056793796
2203,146770.22116163
2204,168279.400580555
2205,124109.989573694
2206,131819.970395247
2207,220869.816193181
2208,267203.802651334
2209,218754.672558434
2210,123239.333864299
2211,106784.369820575
2212,126190.334084207
2213,103595.922223254
2214,122642.982033613
2215,91911.9576289194
2216,144566.827753154
2217,59391.2266998861
2218,94665.2461118181
2219,92921.0842746553
2220,88626.9906650981
2221,298756.316036297
2222,257711.554628657
2223,266171.309669113
2224,213420.90076648
2225,128206.276143402
2226,187104.717864229
2227,200726.379866712
2228,253519.714417373
2229,249281.614852139
2230,144547.732787513
2231,206885.159765905
2232,172389.014568514
2233,168330.851578015
2234,230758.625318569
2235,211950.43393256
2236,266172.404678488
2237,323757.077199379
2238,209086.413918804
2239,113429.878472487
2240,161426.594254259
2241,136288.658899428
2242,126735.491733339
2243,125905.738276254
2244,105057.882485064
2245,106140.878081898
2246,139447.50728134
2247,111770.858985616
2248,125540.231284188
2249,124879.470554266
2250,130455.81009721
2251,102984.940330534
2252,180774.132846697
2253,151561.010281679
2254,172126.441405355
2255,193504.806099285
2256,177104.135368485
2257,209049.486782132
2258,162276.594509035
2259,176536.147843474
2260,148661.470886423
2261,187030.967368909
2262,211508.604898605
2263,342224.167049813
2264,523726.424973029
2265,177241.448331883
2266,308362.447328837
2267,351427.979265196
2268,375844.665775958
2269,153996.051406238
2270,189571.843932356
2271,218022.983046785
2272,198531.709741511
2273,161761.1329334
2274,178256.035773215
2275,162312.030700446
2276,189284.157109026
2277,190341.27232208
2278,142429.089741573
2279,120274.461738938
2280,118691.410102348
2281,169308.504576961
2282,183679.657768732
2283,109745.69028532
2284,110844.490218662
2285,147431.070598127
2286,124980.428099325
2287,367443.48264047
2288,273984.222827116
2289,387759.206572331
2290,471039.108452619
2291,316030.233549578
2292,426596.935877146
2293,512805.579168856
2294,396645.297452389
2295,499937.439129661
2296,293061.297906578
2297,318852.339728274
2298,312996.322179927
2299,356491.912887819
2300,338160.586465719
2301,290676.02828145
2302,245862.737133596
2303,240025.203028452
2304,250684.199073486
2305,207705.189040109
2306,195627.118274828
2307,194378.613557809
2308,222701.904367767
2309,258076.266062819
2310,214866.490666251
2311,208158.605861058
2312,169224.923049704
2313,175477.594448333
2314,181983.137931883
2315,175459.358229101
2316,195032.980105545
2317,186920.764487272
2318,177963.922672483
2319,184845.755023532
2320,184631.094075634
2321,252296.435746125
2322,183525.299225286
2323,182939.077946522
2324,175153.627882003
2325,206314.876106743
2326,170074.975594205
2327,205085.672807105
2328,220713.484338798
2329,191892.282527963
2330,181059.931864943
2331,348798.538570788
2332,403077.751432268
2333,324465.459459647
2334,249537.922129484
2335,256077.402509981
2336,319266.965921528
2337,198254.322633853
2338,271016.917417172
2339,202341.149818713
2340,386949.02303389
2341,208328.240685841
2342,228405.359442966
2343,218890.929322453
2344,218046.812078486
2345,236892.789298565
2346,209808.99796845
2347,194227.694165643
2348,233110.037776654
2349,165210.646559119
2350,288765.561963053
2351,237196.234971035
2352,256750.62448
2353,237226.618488109
2354,129532.799981579
2355,144660.062614458
2356,143703.056170851
2357,191389.574802609
2358,187837.92049595
2359,135148.660488334
2360,117486.516816612
2361,144470.584108736
2362,268769.24992854
2363,134060.083554
2364,168228.973812729
2365,220135.001856991
2366,195446.134385016
2367,225786.110768336
2368,209851.288523114
2369,212340.232020001
2370,165303.001253898
2371,166574.000517424
2372,180775.400585516
2373,249939.253265755
2374,309068.939281419
2375,235059.089349024
2376,280628.803193633
2377,345697.63782461
2378,143724.177845642
2379,218226.622501295
2380,153856.10998714
2381,171379.867298072
2382,206117.863816566
2383,211012.626383128
2384,242870.828340851
2385,163943.044420146
2386,134353.748575636
2387,133185.833811385
2388,102823.107211543
2389,123344.99012101
2390,138106.290596428
2391,141715.182619268
2392,114886.07913945
2393,165550.88820573
2394,141910.735620614
2395,209243.298588255
2396,143354.9303893
2397,219338.610239491
2398,131884.593524308
2399,70859.0381871192
2400,77885.7438386446
2401,111523.882652126
2402,133213.21107961
2403,144904.790756499
2404,145597.357664499
2405,157962.324588285
2406,143279.622498291
2407,126466.150308986
2408,143099.022680081
2409,123156.891846165
2410,175076.342155074
2411,116615.10684942
2412,153801.806076094
2413,127831.031542129
2414,144146.176865468
2415,135813.246590098
2416,126592.795319201
2417,132265.428424318
2418,130368.714056149
2419,126529.679299931
2420,121756.381883855
2421,133404.318355428
2422,109550.972356924
2423,116744.102848853
2424,158835.370319368
2425,188697.903945621
2426,129782.942813517
2427,128250.371339168
2428,169925.487028108
2429,119043.115664484
2430,136736.378313278
2431,113288.759511602
2432,142686.516222138
2433,140750.262143242
2434,131416.337449972
2435,149586.476251464
2436,111135.371451656
2437,111638.985789501
2438,112301.690885222
2439,99775.6525590586
2440,125699.865915701
2441,102208.020949023
2442,110909.40477173
2443,123954.49693492
2444,129885.71112093
2445,92314.9595489313
2446,126326.331051719
2447,170142.817349395
2448,136502.084721251
2449,113911.989295908
2450,152641.424246576
2451,132823.771210164
2452,205424.184385754
2453,94699.8749614479
2454,114691.96557964
2455,119378.120759538
2456,119098.750048219
2457,127626.585034026
2458,129419.823346917
2459,105722.51119169
2460,135800.822665865
2461,124598.691011618
2462,137637.202379286
2463,121250.037693414
2464,177601.344669252
2465,145003.775995756
2466,119877.660731773
2467,140478.237230328
2468,88929.9624069012
2469,88318.4214338764
2470,186274.878802161
2471,210602.726138438
2472,166908.886480061
2473,119252.414272507
2474,82649.3629732979
2475,232221.240757344
2476,121555.970144837
2477,124033.841383965
2478,152299.381389985
2479,110718.41886299
2480,151199.595580154
2481,122913.308593907
2482,129133.963677501
2483,116928.571374685
2484,123990.675699345
2485,125094.137671136
2486,150348.824786117
2487,161410.934321511
2488,160752.274340743
2489,154316.011260845
2490,140622.239531588
2491,92996.5348813577
2492,179494.283805918
2493,140832.767693954
2494,139918.014655792
2495,96809.744907492
2496,227115.169770687
2497,154948.382620485
2498,110948.269956308
2499,86442.3607573721
2500,130414.739316878
2501,132857.18002371
2502,148527.780834648
2503,90145.5149806608
2504,93110.1549299048
2505,218503.848629823
2506,259692.503341103
2507,297374.063351345
2508,259305.649198591
2509,213507.938878244
2510,218496.939486615
2511,175312.320312684
2512,204322.560610742
2513,215565.566882871
2514,235727.042198269
2515,145769.509009439
2516,171791.562017684
2517,143992.855874614
2518,146086.787683936
2519,223200.13448386
2520,211833.990392793
2521,188647.173365785
2522,224687.160150763
2523,122485.404887928
2524,133942.799629892
2525,143979.608779601
2526,133413.004641317
2527,119976.305900021
2528,125460.38615514
2529,128730.416499277
2530,121542.109655523
2531,251854.119238541
2532,229670.411796737
2533,193993.128798952
2534,223988.868994267
2535,306121.727430869
2536,220595.794210335
2537,232783.762743297
2538,182957.472307142
2539,187848.058786809
2540,177715.676020867
2541,183778.537327063
2542,159220.89708709
2543,129054.105132734
2544,119013.731171222
2545,129641.817934792
2546,135640.820463644
2547,126104.579340921
2548,154096.008330281
2549,158605.415907722
2550,1504896.9996246
2551,145415.142231714
2552,125869.058827075
2553,88062.561688584
2554,94065.7567635803
2555,123191.725949426
2556,102268.912126318
2557,105231.113127643
2558,125831.821570506
2559,126944.7215776
2560,153077.329885152
2561,151198.667919499
2562,128041.943799181
2563,150162.488334392
2564,196588.056945568
2565,134072.469287038
2566,155155.909284597
2567,138687.177387447
2568,193651.007724302
2569,210610.461840387
2570,123380.983545593
2571,183677.004036096
2572,159672.108671643
2573,209783.917274671
2574,284947.968422908
2575,132876.468833645
2576,119609.438215731
2577,131426.311256631
2578,84339.7527680506
2579,73532.3089476566
2580,102936.849982663
2581,116424.36706565
2582,116941.958367526
2583,300694.90094175
2584,149610.467522985
2585,187093.664598948
2586,234861.961621774
2587,208150.918009744
2588,144035.589029007
2589,153743.439182616
2590,209210.182964333
2591,220995.62777445
2592,207294.255129602
2593,239494.253147931
2594,177316.092260991
2595,193992.693393471
2596,299144.944839805
2597,178670.304527292
2598,277379.224406564
2599,310169.281321797
2600,153280.628556859
2601,140371.049882385
2602,87285.4242865335
2603,96897.7327851805
2604,86747.7726567802
2605,84552.4318379971
2606,148626.664607532
2607,220624.987207785
2608,187585.994158751
2609,168749.497056826
2610,107693.127914603
2611,121052.149437204
2612,158496.241386073
2613,132768.356959595
2614,125476.681615892
2615,155033.216455248
2616,143887.427219762
2617,182539.875398567
2618,190561.692662911
2619,206925.141210759
2620,187637.781936269
2621,173383.231345706
2622,181966.898277456
2623,243903.686324387
2624,294804.67934291
2625,300827.583856708
2626,172261.996881241
2627,167255.657149423
2628,456962.061493519
2629,512582.265157029
2630,380407.842555962
2631,517570.346239287
2632,396829.638005746
2633,331301.640505859
2634,374332.767619606
2635,161959.164227475
2636,184876.293142175
2637,174581.207260241
2638,266593.250231328
2639,183300.673221171
2640,151438.941320935
2641,108142.387497016
2642,191374.722711494
2643,108819.938255938
2644,123420.613589494
2645,111394.643987357
2646,101994.841340288
2647,109432.542069791
2648,148077.414461408
2649,146217.793679818
2650,146345.398296781
2651,146515.177907271
2652,416116.726850915
2653,254226.878489075
2654,251964.798074804
2655,386616.732972468
2656,315625.002347729
2657,318509.28913513
2658,280141.573612594
2659,308829.514432337
2660,334171.584623791
2661,360950.187028582
2662,339867.575008686
2663,287767.649414323
2664,249269.097498619
2665,323108.867335485
2666,280009.544881064
2667,171791.759495683
2668,180169.187507582
2669,176958.741463948
2670,279616.02093434
2671,182941.266894667
2672,199065.176694291
2673,210384.129673421
2674,203787.903257185
2675,174742.665567961
2676,190245.536199403
2677,196395.751718484
2678,254484.254861227
2679,266847.795355242
2680,280416.737594508
2681,384457.12008194
2682,319478.147303608
2683,479228.79357631
2684,316375.384908158
2685,324486.444618862
2686,248375.154649547
2687,307557.304692549
2688,210655.599824666
2689,203815.123429111
2690,441692.294930863
2691,183658.786152917
2692,139783.608635489
2693,194136.86316403
2694,136340.757054338
2695,189956.261513077
2696,183090.312843971
2697,185443.593932949
2698,186434.668991791
2699,179920.51679114
2700,160650.055505412
2701,153306.95954074
2702,112835.539799483
2703,132264.950976574
2704,141135.536430753
2705,122046.211895437
2706,110391.235423361
2707,127591.892452098
2708,129967.743072168
2709,102861.447609646
2710,125568.018128511
2711,212772.375919167
2712,360253.321953898
2713,170706.987372309
2714,155637.224380645
2715,170475.816848944
2716,157060.465132044
2717,181479.541754099
2718,214538.968995877
2719,146693.29722084
2720,178014.527288931
2721,134340.815850726
2722,154967.648835652
2723,155381.680534263
2724,127993.167531572
2725,130733.564434905
2726,146678.855095668
2727,183290.226575683
2728,171676.232030164
2729,127332.765888918
2730,144239.052038366
2731,131150.83835658
2732,128214.248022427
2733,156197.768848597
2734,148668.657763298
2735,132807.786347058
2736,138296.97567665
2737,118706.877613832
2738,141212.627088469
2739,158636.806250851
2740,138933.727783336
2741,140176.548514206
2742,153448.201602601
2743,146410.715466299
2744,156799.493964473
2745,150633.056534397
2746,133992.512155236
2747,143060.488412272
2748,119720.615547351
2749,125898.805958663
2750,125997.826746975
2751,129944.287656415
2752,187277.746701279
2753,142905.655234036
2754,209232.355039274
2755,133396.566017922
2756,94716.3220779946
2757,76259.2765392507
2758,98822.7546344041
2759,156893.917198418
2760,121923.347117477
2761,139400.653243829
2762,142266.632632671
2763,189752.282885867
2764,148282.426583277
2765,296771.719814762
2766,112623.010587144
2767,88895.1102660573
2768,130467.524111579
2769,128755.519868308
2770,148141.908815424
2771,114031.266265728
2772,115897.396923429
2773,163158.037867483
2774,136023.824703486
2775,122197.147798258
2776,144679.939404681
2777,146371.075355926
2778,112248.418856962
2779,120938.767927231
2780,99050.3849676605
2781,85467.957244703
2782,96689.0478840514
2783,95086.4332435971
2784,120211.834806608
2785,129777.195492315
2786,74872.5109348879
2787,123965.790221653
2788,79377.5479114539
2789,173190.245203735
2790,95952.1184081666
2791,112505.402227894
2792,75735.9516588695
2793,132593.363959941
2794,97062.9197873983
2795,123461.774999697
2796,94264.5977550434
2797,182563.771102447
2798,109867.984561952
2799,113839.570862273
2800,75162.3816530707
2801,97620.8198532667
2802,125808.322214472
2803,158279.216123674
2804,126192.704780128
2805,99088.4794927009
2806,91355.0147357259
2807,160219.945969598
2808,142924.394025407
2809,133865.799580178
2810,131092.552034114
2811,151963.901898511
2812,159549.899951489
2813,162068.343026216
2814,164394.92570985
2815,101599.18505437
2816,229612.096346993
2817,137414.298577266
2818,131394.261665006
2819,170893.400407508
2820,133206.65012808
2821,105935.123824606
2822,191062.243723201
2823,377568.821106328
2824,168028.801115624
2825,139084.723740412
2826,134739.274857348
2827,141706.919479612
2828,208554.33218507
2829,214753.339014299
2830,232345.78485638
2831,178364.909335132
2832,253174.649785533
2833,278427.289526815
2834,214497.420201832
2835,217372.677752278
2836,189377.204201594
2837,162001.502916918
2838,147450.037208302
2839,174667.940459125
2840,209309.102963389
2841,201380.614112667
2842,224713.808767865
2843,148022.053312267
2844,164215.208137439
2845,126137.10080896
2846,207079.254692372
2847,198866.86609808
2848,176371.393078332
2849,199210.78414889
2850,284653.89731018
2851,215995.892670653
2852,234184.575194689
2853,231691.346207634
2854,141355.831513416
2855,202899.651351512
2856,196872.04235338
2857,186210.393368804
2858,201581.135801571
2859,121767.090184682
2860,129312.481672941
2861,126771.419932245
2862,184584.416119498
2863,129967.235922777
2864,237917.560231294
2865,148710.462130095
2866,146719.210947935
2867,101733.585233229
2868,97010.3284032385
2869,104923.928877281
2870,124748.613703712
2871,94851.0840897458
2872,64674.8972272939
2873,99833.0605201443
2874,135769.324003513
2875,125640.705411442
2876,166044.409447919
2877,143758.267987966
2878,168208.993171187
2879,128308.947692901
2880,107385.588058435
2881,141872.780103486
2882,164798.263214923
2883,194284.357745743
2884,198589.47891912
2885,180410.861285602
2886,219168.970235783
2887,84600.3606080396
2888,137266.618859411
2889,49426.1376862353
2890,80212.312195537
2891,136469.223581944
2892,65993.2629141232
2893,94573.1551764869
2894,71284.1293114502
2895,319469.258059638
2896,276466.649348132
2897,170167.428697288
2898,157498.162125421
2899,204113.088890382
2900,159771.461008834
2901,187547.576588529
2902,186231.079042644
2903,313195.138112543
2904,349236.344045916
2905,90399.2131457786
2906,209689.374289417
2907,112302.095722753
2908,131201.811234662
2909,157799.183142271
2910,86466.0120815187
2911,87691.553635102
2912,148393.505677697
2913,88828.5303939565
2914,79715.8398480725
2915,85383.2310273209
2916,89231.0500000208
2917,172651.267587619
2918,115247.148623999
2919,227988.542619338
